#[MATERIAL DEFINITION FOR MC-GPU: interaction mean free path and sampling data from PENELOPE 2006]
#[MATERIAL NAME]
# AIR, DRY (NEAR SEA LEVEL)  (104)                              
#[NOMINAL DENSITY (g/cm^3)]
#   0.00120479
#[NUMBER OF DATA VALUES]
#  25005
#[MEAN FREE PATHS (cm) (ie, average distance between interactions)]
#[Energy (eV)     | Rayleigh        | Compton         | Photoelectric   | TOTAL (+pair prod) (cm) | Rayleigh: max cumul prob F^2]
  5.0000000000E+03  1.5942291374E+03  8.4745117063E+03  2.0955140803E+01  2.0632914566E+01  3.3354393064E-01
  5.0057988402E+03  1.5963388989E+03  8.4685325789E+03  2.1028317677E+01  2.0704174104E+01  3.3383293319E-01
  5.0115976805E+03  1.5984490050E+03  8.4625645850E+03  2.1101664454E+01  2.0775594245E+01  3.3412160795E-01
  5.0173965207E+03  1.6005594553E+03  8.4566076912E+03  2.1175181330E+01  2.0847175150E+01  3.3440995592E-01
  5.0231953609E+03  1.6026702495E+03  8.4506618638E+03  2.1248868500E+01  2.0918916979E+01  3.3469797810E-01
  5.0289942012E+03  1.6047813872E+03  8.4447270698E+03  2.1322726160E+01  2.0990819891E+01  3.3498567549E-01
  5.0347930414E+03  1.6068928682E+03  8.4388032758E+03  2.1396754505E+01  2.1062884047E+01  3.3527304907E-01
  5.0405918816E+03  1.6090046920E+03  8.4328904489E+03  2.1470953730E+01  2.1135109607E+01  3.3556009983E-01
  5.0463907219E+03  1.6111168583E+03  8.4269885561E+03  2.1545324031E+01  2.1207496729E+01  3.3584682875E-01
  5.0521895621E+03  1.6132293668E+03  8.4210975648E+03  2.1619865603E+01  2.1280045574E+01  3.3613323681E-01
  5.0579884023E+03  1.6153422172E+03  8.4152174423E+03  2.1694578642E+01  2.1352756302E+01  3.3641932497E-01
  5.0637872426E+03  1.6174554091E+03  8.4093481562E+03  2.1769463342E+01  2.1425629071E+01  3.3670509421E-01
  5.0695860828E+03  1.6195689421E+03  8.4034896740E+03  2.1844519900E+01  2.1498664041E+01  3.3699054552E-01
  5.0753849230E+03  1.6216828160E+03  8.3976419637E+03  2.1919748510E+01  2.1571861372E+01  3.3727567989E-01
  5.0811837632E+03  1.6237970305E+03  8.3918049930E+03  2.1995149369E+01  2.1645221221E+01  3.3756049830E-01
  5.0869826035E+03  1.6259135260E+03  8.3859910799E+03  2.2070722670E+01  2.1718744178E+01  3.3784500173E-01
  5.0927814437E+03  1.6280418106E+03  8.3802604982E+03  2.2146468611E+01  2.1792432520E+01  3.3812919116E-01
  5.0985802839E+03  1.6301704544E+03  8.3745403472E+03  2.2222387385E+01  2.1866283888E+01  3.3841306757E-01
  5.1043791242E+03  1.6322994570E+03  8.3688305961E+03  2.2298479189E+01  2.1940298443E+01  3.3869663191E-01
  5.1101779644E+03  1.6344288181E+03  8.3631312141E+03  2.2374744217E+01  2.2014476343E+01  3.3897988516E-01
  5.1159768046E+03  1.6365585373E+03  8.3574421707E+03  2.2451182666E+01  2.2088817746E+01  3.3926282828E-01
  5.1217756449E+03  1.6386886142E+03  8.3517634355E+03  2.2527794729E+01  2.2163322812E+01  3.3954546222E-01
  5.1275744851E+03  1.6408190486E+03  8.3460949781E+03  2.2604580604E+01  2.2237991699E+01  3.3982778793E-01
  5.1333733253E+03  1.6429498400E+03  8.3404367684E+03  2.2681540484E+01  2.2312824564E+01  3.4010980637E-01
  5.1391721656E+03  1.6450809882E+03  8.3347887762E+03  2.2758674565E+01  2.2387821567E+01  3.4039151847E-01
  5.1449710058E+03  1.6472124927E+03  8.3291509717E+03  2.2835983043E+01  2.2462982865E+01  3.4067292521E-01
  5.1507698460E+03  1.6493443533E+03  8.3235233250E+03  2.2913466112E+01  2.2538308616E+01  3.4095402753E-01
  5.1565686863E+03  1.6514765696E+03  8.3179058064E+03  2.2991123969E+01  2.2613798979E+01  3.4123482641E-01
  5.1623675265E+03  1.6536091413E+03  8.3122983863E+03  2.3068956808E+01  2.2689454110E+01  3.4151532279E-01
  5.1681663667E+03  1.6557420680E+03  8.3067010352E+03  2.3146964824E+01  2.2765274169E+01  3.4179551762E-01
  5.1739652070E+03  1.6578756765E+03  8.3011157956E+03  2.3225148213E+01  2.2841259389E+01  3.4207541186E-01
  5.1797640472E+03  1.6600222508E+03  8.2956202724E+03  2.3303507170E+01  2.2917412865E+01  3.4235500643E-01
  5.1855628874E+03  1.6621691981E+03  8.2901345302E+03  2.3382041891E+01  2.2993731771E+01  3.4263430229E-01
  5.1913617277E+03  1.6643165179E+03  8.2846585405E+03  2.3460752570E+01  2.3070216267E+01  3.4291330037E-01
  5.1971605679E+03  1.6664642098E+03  8.2791922754E+03  2.3539639402E+01  2.3146866509E+01  3.4319200159E-01
  5.2029594081E+03  1.6686122736E+03  8.2737357066E+03  2.3618702584E+01  2.3223682654E+01  3.4347040688E-01
  5.2087582484E+03  1.6707607089E+03  8.2682888061E+03  2.3697942310E+01  2.3300664860E+01  3.4374851717E-01
  5.2145570886E+03  1.6729095153E+03  8.2628515461E+03  2.3777358775E+01  2.3377813284E+01  3.4402633338E-01
  5.2203559288E+03  1.6750586924E+03  8.2574238989E+03  2.3856952175E+01  2.3455128082E+01  3.4430385644E-01
  5.2261547690E+03  1.6772082400E+03  8.2520058368E+03  2.3936722704E+01  2.3532609412E+01  3.4458108728E-01
  5.2319536093E+03  1.6793581577E+03  8.2465973322E+03  2.4016670558E+01  2.3610257430E+01  3.4485802685E-01
  5.2377524495E+03  1.6815084451E+03  8.2411983578E+03  2.4096795933E+01  2.3688072292E+01  3.4513467605E-01
  5.2435512897E+03  1.6836591019E+03  8.2358088862E+03  2.4177099023E+01  2.3766054156E+01  3.4541103582E-01
  5.2493501300E+03  1.6858101277E+03  8.2304288903E+03  2.4257580024E+01  2.3844203178E+01  3.4568710708E-01
  5.2551489702E+03  1.6879615222E+03  8.2250583428E+03  2.4338239130E+01  2.3922519513E+01  3.4596289073E-01
  5.2609478104E+03  1.6901132851E+03  8.2196972169E+03  2.4419076537E+01  2.4001003319E+01  3.4623838770E-01
  5.2667466507E+03  1.6922734674E+03  8.2143962305E+03  2.4500092440E+01  2.4079656816E+01  3.4651359888E-01
  5.2725454909E+03  1.6944384657E+03  8.2091324003E+03  2.4581287034E+01  2.4158479261E+01  3.4678852519E-01
  5.2783443311E+03  1.6966038495E+03  8.2038777238E+03  2.4662660514E+01  2.4237469677E+01  3.4706316752E-01
  5.2841431714E+03  1.6987696183E+03  8.1986321749E+03  2.4744213076E+01  2.4316628220E+01  3.4733752677E-01
  5.2899420116E+03  1.7009357718E+03  8.1933957279E+03  2.4825944914E+01  2.4395955045E+01  3.4761160384E-01
  5.2957408518E+03  1.7031023097E+03  8.1881683569E+03  2.4907856224E+01  2.4475450309E+01  3.4788539963E-01
  5.3015396921E+03  1.7052692315E+03  8.1829500363E+03  2.4989947201E+01  2.4555114167E+01  3.4815891505E-01
  5.3073385323E+03  1.7074365370E+03  8.1777407406E+03  2.5072218039E+01  2.4634946775E+01  3.4843215101E-01
  5.3131373725E+03  1.7096042258E+03  8.1725404444E+03  2.5154668935E+01  2.4714948288E+01  3.4870510840E-01
  5.3189362128E+03  1.7117722976E+03  8.1673491222E+03  2.5237300082E+01  2.4795118861E+01  3.4897778811E-01
  5.3247350530E+03  1.7139407519E+03  8.1621667489E+03  2.5320111677E+01  2.4875458649E+01  3.4925019104E-01
  5.3305338932E+03  1.7161095885E+03  8.1569932993E+03  2.5403103914E+01  2.4955967807E+01  3.4952231807E-01
  5.3363327335E+03  1.7182788070E+03  8.1518287483E+03  2.5486276988E+01  2.5036646492E+01  3.4979417010E-01
  5.3421315737E+03  1.7204484070E+03  8.1466730711E+03  2.5569631095E+01  2.5117494856E+01  3.5006574798E-01
  5.3479304139E+03  1.7226183883E+03  8.1415262427E+03  2.5653166429E+01  2.5198513055E+01  3.5033705262E-01
  5.3537292541E+03  1.7247887504E+03  8.1363882384E+03  2.5736883186E+01  2.5279701244E+01  3.5060808487E-01
  5.3595280944E+03  1.7269715219E+03  8.1313346301E+03  2.5820781560E+01  2.5361062907E+01  3.5087884560E-01
  5.3653269346E+03  1.7291546989E+03  8.1262896704E+03  2.5904861747E+01  2.5442594904E+01  3.5114933570E-01
  5.3711257748E+03  1.7313382730E+03  8.1212532853E+03  2.5989123942E+01  2.5524297387E+01  3.5141955605E-01
  5.3769246151E+03  1.7335222439E+03  8.1162254511E+03  2.6073568339E+01  2.5606170512E+01  3.5168950751E-01
  5.3827234553E+03  1.7357066112E+03  8.1112061440E+03  2.6158195134E+01  2.5688214431E+01  3.5195919096E-01
  5.3885222955E+03  1.7378913746E+03  8.1061953403E+03  2.6243004522E+01  2.5770429301E+01  3.5222860728E-01
  5.3943211358E+03  1.7400765336E+03  8.1011930167E+03  2.6327996698E+01  2.5852815273E+01  3.5249775733E-01
  5.4001199760E+03  1.7422620880E+03  8.0961991495E+03  2.6413171856E+01  2.5935372503E+01  3.5276664196E-01
  5.4059188162E+03  1.7444480374E+03  8.0912137155E+03  2.6498530192E+01  2.6018101144E+01  3.5303526205E-01
  5.4117176565E+03  1.7466343814E+03  8.0862366915E+03  2.6584071901E+01  2.6101001350E+01  3.5330361844E-01
  5.4175164967E+03  1.7488211197E+03  8.0812680541E+03  2.6669797177E+01  2.6184073274E+01  3.5357171199E-01
  5.4233153369E+03  1.7510082520E+03  8.0763077804E+03  2.6755706217E+01  2.6267317071E+01  3.5383954354E-01
  5.4291141772E+03  1.7531957778E+03  8.0713558473E+03  2.6841799214E+01  2.6350732892E+01  3.5410711395E-01
  5.4349130174E+03  1.7553836969E+03  8.0664122319E+03  2.6928076364E+01  2.6434320892E+01  3.5437442405E-01
  5.4407118576E+03  1.7575720089E+03  8.0614769114E+03  2.7014537861E+01  2.6518081224E+01  3.5464147471E-01
  5.4465106979E+03  1.7597616868E+03  8.0565559870E+03  2.7101183901E+01  2.6602014330E+01  3.5490826676E-01
  5.4523095381E+03  1.7619623694E+03  8.0517099278E+03  2.7188014679E+01  2.6686123243E+01  3.5517480107E-01
  5.4581083783E+03  1.7641634603E+03  8.0468719303E+03  2.7275030389E+01  2.6770404980E+01  3.5544107846E-01
  5.4639072186E+03  1.7663649592E+03  8.0420419724E+03  2.7362231227E+01  2.6854859695E+01  3.5570709979E-01
  5.4697060588E+03  1.7685668658E+03  8.0372200322E+03  2.7449617387E+01  2.6939487540E+01  3.5597286589E-01
  5.4755048990E+03  1.7707691798E+03  8.0324060881E+03  2.7537189064E+01  2.7024288669E+01  3.5623837759E-01
  5.4813037393E+03  1.7729719006E+03  8.0276001182E+03  2.7625373277E+01  2.7109674270E+01  3.5650363572E-01
  5.4871025795E+03  1.7751750281E+03  8.0228021010E+03  2.7713926841E+01  2.7195410033E+01  3.5676864112E-01
  5.4929014197E+03  1.7773785618E+03  8.0180120149E+03  2.7802669681E+01  2.7281322492E+01  3.5703339460E-01
  5.4987002599E+03  1.7795825015E+03  8.0132298385E+03  2.7891602000E+01  2.7367411806E+01  3.5729789699E-01
  5.5044991002E+03  1.7817868466E+03  8.0084555503E+03  2.7980723999E+01  2.7453678132E+01  3.5756214911E-01
  5.5102979404E+03  1.7839915969E+03  8.0036891291E+03  2.8070035881E+01  2.7540121629E+01  3.5782615177E-01
  5.5160967806E+03  1.7861967521E+03  7.9989305536E+03  2.8159537847E+01  2.7626742454E+01  3.5808990581E-01
  5.5218956209E+03  1.7884023118E+03  7.9941798028E+03  2.8249230099E+01  2.7713540765E+01  3.5835341205E-01
  5.5276944611E+03  1.7906082755E+03  7.9894368555E+03  2.8339112840E+01  2.7800516719E+01  3.5861667130E-01
  5.5334933013E+03  1.7928146431E+03  7.9847016907E+03  2.8429186272E+01  2.7887670474E+01  3.5887968438E-01
  5.5392921416E+03  1.7950214141E+03  7.9799742876E+03  2.8519450596E+01  2.7975002186E+01  3.5914245210E-01
  5.5450909818E+03  1.7972385434E+03  7.9753172202E+03  2.8609906014E+01  2.8062515216E+01  3.5940497527E-01
  5.5508898220E+03  1.7994572647E+03  7.9706751101E+03  2.8700552729E+01  2.8150206930E+01  3.5966725470E-01
  5.5566886623E+03  1.8016764041E+03  7.9660405447E+03  2.8791390942E+01  2.8238077107E+01  3.5992929118E-01
  5.5624875025E+03  1.8038959614E+03  7.9614135039E+03  2.8882420856E+01  2.8326125907E+01  3.6019108552E-01
  5.5682863427E+03  1.8061159361E+03  7.9567939676E+03  2.8973642672E+01  2.8414353485E+01  3.6045263851E-01
  5.5740851830E+03  1.8083363278E+03  7.9521819159E+03  2.9065056592E+01  2.8502759998E+01  3.6071395094E-01
  5.5798840232E+03  1.8105571363E+03  7.9475773289E+03  2.9156662819E+01  2.8591345603E+01  3.6097502362E-01
  5.5856828634E+03  1.8127783611E+03  7.9429801867E+03  2.9248461554E+01  2.8680110457E+01  3.6123585734E-01
  5.5914817037E+03  1.8150000019E+03  7.9383904696E+03  2.9340452999E+01  2.8769054715E+01  3.6149645290E-01
  5.5972805439E+03  1.8172220584E+03  7.9338081580E+03  2.9432637356E+01  2.8858178535E+01  3.6175681109E-01
  5.6030793841E+03  1.8194445301E+03  7.9292332321E+03  2.9525014828E+01  2.8947482072E+01  3.6201693269E-01
  5.6088782244E+03  1.8216674168E+03  7.9246656726E+03  2.9617585616E+01  2.9036965483E+01  3.6227681850E-01
  5.6146770646E+03  1.8238907182E+03  7.9201054599E+03  2.9710349922E+01  2.9126628923E+01  3.6253646930E-01
  5.6204759048E+03  1.8261144337E+03  7.9155525747E+03  2.9803307947E+01  2.9216472548E+01  3.6279588586E-01
  5.6262747451E+03  1.8283385632E+03  7.9110069975E+03  2.9896459895E+01  2.9306496514E+01  3.6305506897E-01
  5.6320735853E+03  1.8305631061E+03  7.9064687093E+03  2.9989805967E+01  2.9396700977E+01  3.6331401939E-01
  5.6378724255E+03  1.8327926056E+03  7.9019663616E+03  3.0083346365E+01  2.9487087667E+01  3.6357273791E-01
  5.6436712657E+03  1.8350286557E+03  7.8975098257E+03  3.0177081290E+01  2.9577657314E+01  3.6383122528E-01
  5.6494701060E+03  1.8372651332E+03  7.8930603761E+03  3.0271010945E+01  2.9668407961E+01  3.6408948228E-01
  5.6552689462E+03  1.8395020379E+03  7.8886179942E+03  3.0365135532E+01  2.9759339761E+01  3.6434750969E-01
  5.6610677864E+03  1.8417393693E+03  7.8841826615E+03  3.0459455252E+01  2.9850452871E+01  3.6460530827E-01
  5.6668666267E+03  1.8439771272E+03  7.8797543597E+03  3.0553970308E+01  2.9941747446E+01  3.6486287878E-01
  5.6726654669E+03  1.8462153111E+03  7.8753330704E+03  3.0648680902E+01  3.0033223640E+01  3.6512022200E-01
  5.6784643071E+03  1.8484539207E+03  7.8709187754E+03  3.0743587235E+01  3.0124881608E+01  3.6537733867E-01
  5.6842631474E+03  1.8506929557E+03  7.8665114566E+03  3.0838689509E+01  3.0216721505E+01  3.6563422957E-01
  5.6900619876E+03  1.8529324156E+03  7.8621110956E+03  3.0933987926E+01  3.0308743486E+01  3.6589089544E-01
  5.6958608278E+03  1.8551723002E+03  7.8577176746E+03  3.1029482688E+01  3.0400947705E+01  3.6614733703E-01
  5.7016596681E+03  1.8574126091E+03  7.8533311755E+03  3.1125173998E+01  3.0493334316E+01  3.6640355510E-01
  5.7074585083E+03  1.8596533420E+03  7.8489515804E+03  3.1221062056E+01  3.0585903475E+01  3.6665955039E-01
  5.7132573485E+03  1.8618944984E+03  7.8445788714E+03  3.1317147065E+01  3.0678655334E+01  3.6691532363E-01
  5.7190561888E+03  1.8641360780E+03  7.8402130308E+03  3.1413429227E+01  3.0771590049E+01  3.6717087557E-01
  5.7248550290E+03  1.8663780806E+03  7.8358540407E+03  3.1509908743E+01  3.0864707772E+01  3.6742620696E-01
  5.7306538692E+03  1.8686205057E+03  7.8315018836E+03  3.1606585816E+01  3.0958008658E+01  3.6768131854E-01
  5.7364527095E+03  1.8708702295E+03  7.8272001254E+03  3.1703460647E+01  3.1051495440E+01  3.6793621106E-01
  5.7422515497E+03  1.8731237252E+03  7.8229262080E+03  3.1800533439E+01  3.1145166975E+01  3.6819088526E-01
  5.7480503899E+03  1.8753776565E+03  7.8186589345E+03  3.1897804392E+01  3.1239022171E+01  3.6844534187E-01
  5.7538492302E+03  1.8776320233E+03  7.8143982881E+03  3.1995273710E+01  3.1333061180E+01  3.6869958164E-01
  5.7596480704E+03  1.8798868250E+03  7.8101442518E+03  3.2092941594E+01  3.1427284157E+01  3.6895360528E-01
  5.7654469106E+03  1.8821420614E+03  7.8058968086E+03  3.2190808245E+01  3.1521691253E+01  3.6920741354E-01
  5.7712457508E+03  1.8843977321E+03  7.8016559418E+03  3.2288873866E+01  3.1616282624E+01  3.6946100714E-01
  5.7770445911E+03  1.8866538367E+03  7.7974216345E+03  3.2387138659E+01  3.1711058420E+01  3.6971438681E-01
  5.7828434313E+03  1.8889103749E+03  7.7931938700E+03  3.2485602825E+01  3.1806018796E+01  3.6996755326E-01
  5.7886422715E+03  1.8911673463E+03  7.7889726318E+03  3.2584266566E+01  3.1901163904E+01  3.7022050721E-01
  5.7944411118E+03  1.8934247506E+03  7.7847579031E+03  3.2683130084E+01  3.1996493897E+01  3.7047324939E-01
  5.8002399520E+03  1.8956825875E+03  7.7805496675E+03  3.2782193581E+01  3.2092008928E+01  3.7072578051E-01
  5.8060387922E+03  1.8979408565E+03  7.7763479084E+03  3.2881457259E+01  3.2187709148E+01  3.7097810127E-01
  5.8118376325E+03  1.9001995574E+03  7.7721526095E+03  3.2980921320E+01  3.2283594710E+01  3.7123021240E-01
  5.8176364727E+03  1.9024586898E+03  7.7679637544E+03  3.3080585965E+01  3.2379665766E+01  3.7148211458E-01
  5.8234353129E+03  1.9047182533E+03  7.7637813268E+03  3.3180451397E+01  3.2475922468E+01  3.7173380854E-01
  5.8292341532E+03  1.9069782476E+03  7.7596053104E+03  3.3280517817E+01  3.2572364969E+01  3.7198529497E-01
  5.8350329934E+03  1.9092448356E+03  7.7554750292E+03  3.3380785426E+01  3.2668995922E+01  3.7223657456E-01
  5.8408318336E+03  1.9115154561E+03  7.7513739461E+03  3.3481254428E+01  3.2765814466E+01  3.7248764803E-01
  5.8466306739E+03  1.9137865198E+03  7.7472790981E+03  3.3581925023E+01  3.2862819300E+01  3.7273851606E-01
  5.8524295141E+03  1.9160580263E+03  7.7431904694E+03  3.3682797414E+01  3.2960010576E+01  3.7298917935E-01
  5.8582283543E+03  1.9183299754E+03  7.7391080445E+03  3.3783871802E+01  3.3057388447E+01  3.7323963862E-01
  5.8640271946E+03  1.9206023665E+03  7.7350318078E+03  3.3885148389E+01  3.3154953063E+01  3.7348989455E-01
  5.8698260348E+03  1.9228751995E+03  7.7309617438E+03  3.3986627377E+01  3.3252704575E+01  3.7373994784E-01
  5.8756248750E+03  1.9251484739E+03  7.7268978372E+03  3.4088308968E+01  3.3350643135E+01  3.7398979918E-01
  5.8814237153E+03  1.9274221894E+03  7.7228400724E+03  3.4190193364E+01  3.3448768894E+01  3.7423944925E-01
  5.8872225555E+03  1.9296963457E+03  7.7187884342E+03  3.4292280765E+01  3.3547082002E+01  3.7448889876E-01
  5.8930213957E+03  1.9319709423E+03  7.7147429074E+03  3.4394571375E+01  3.3645582611E+01  3.7473814837E-01
  5.8988202360E+03  1.9342459790E+03  7.7107034767E+03  3.4497065395E+01  3.3744270871E+01  3.7498719877E-01
  5.9046190762E+03  1.9365214553E+03  7.7066701269E+03  3.4599763027E+01  3.3843146932E+01  3.7523605065E-01
  5.9104179164E+03  1.9387973710E+03  7.7026428429E+03  3.4702664473E+01  3.3942210945E+01  3.7548470467E-01
  5.9162167566E+03  1.9410737258E+03  7.6986216097E+03  3.4805769934E+01  3.4041463060E+01  3.7573316152E-01
  5.9220155969E+03  1.9433505191E+03  7.6946064123E+03  3.4909079611E+01  3.4140903428E+01  3.7598142186E-01
  5.9278144371E+03  1.9456277508E+03  7.6905972357E+03  3.5012593708E+01  3.4240532198E+01  3.7622948637E-01
  5.9336132773E+03  1.9479081771E+03  7.6866118359E+03  3.5116312426E+01  3.4340350731E+01  3.7647735572E-01
  5.9394121176E+03  1.9501955839E+03  7.6826744763E+03  3.5220235966E+01  3.4440360863E+01  3.7672503056E-01
  5.9452109578E+03  1.9524834407E+03  7.6787429730E+03  3.5324364530E+01  3.4540559885E+01  3.7697251157E-01
  5.9510097980E+03  1.9547717471E+03  7.6748173114E+03  3.5428698321E+01  3.4640947946E+01  3.7721979940E-01
  5.9568086383E+03  1.9570605027E+03  7.6708974772E+03  3.5533237539E+01  3.4741525197E+01  3.7746689472E-01
  5.9626074785E+03  1.9593497073E+03  7.6669834562E+03  3.5637982387E+01  3.4842291786E+01  3.7771379817E-01
  5.9684063187E+03  1.9616393604E+03  7.6630752340E+03  3.5742933066E+01  3.4943247863E+01  3.7796051043E-01
  5.9742051590E+03  1.9639294618E+03  7.6591727965E+03  3.5848089778E+01  3.5044393577E+01  3.7820703213E-01
  5.9800039992E+03  1.9662200110E+03  7.6552761294E+03  3.5953452726E+01  3.5145729078E+01  3.7845336393E-01
  5.9858028394E+03  1.9685110077E+03  7.6513852188E+03  3.6059022109E+01  3.5247254513E+01  3.7869950650E-01
  5.9916016797E+03  1.9708024517E+03  7.6475000504E+03  3.6164798131E+01  3.5348970033E+01  3.7894546047E-01
  5.9974005199E+03  1.9730943424E+03  7.6436206103E+03  3.6270780994E+01  3.5450875786E+01  3.7919122650E-01
  6.0031993601E+03  1.9753866797E+03  7.6397468845E+03  3.6377227950E+01  3.5553217458E+01  3.7943680523E-01
  6.0089982004E+03  1.9776794630E+03  7.6358788591E+03  3.6484092818E+01  3.5655950827E+01  3.7968219732E-01
  6.0147970406E+03  1.9799726922E+03  7.6320165202E+03  3.6591167474E+01  3.5758877026E+01  3.7992740339E-01
  6.0205958808E+03  1.9822663669E+03  7.6281598540E+03  3.6698452125E+01  3.5861996207E+01  3.8017242408E-01
  6.0263947211E+03  1.9845604866E+03  7.6243088467E+03  3.6805946978E+01  3.5965308522E+01  3.8041726005E-01
  6.0321935613E+03  1.9868550512E+03  7.6204634845E+03  3.6913652240E+01  3.6068814124E+01  3.8066191192E-01
  6.0379924015E+03  1.9891559406E+03  7.6166619258E+03  3.7021568118E+01  3.6172515971E+01  3.8090638032E-01
  6.0437912418E+03  1.9914602769E+03  7.6128853184E+03  3.7129694818E+01  3.6276412868E+01  3.8115066589E-01
  6.0495900820E+03  1.9937650690E+03  7.6091142028E+03  3.7238032549E+01  3.6380503547E+01  3.8139476926E-01
  6.0553889222E+03  1.9960703165E+03  7.6053485656E+03  3.7346581517E+01  3.6484788160E+01  3.8163869105E-01
  6.0611877624E+03  1.9983760190E+03  7.6015883937E+03  3.7455341928E+01  3.6589266859E+01  3.8188243189E-01
  6.0669866027E+03  2.0006821762E+03  7.5978336738E+03  3.7564313991E+01  3.6693939794E+01  3.8212599240E-01
  6.0727854429E+03  2.0029887877E+03  7.5940843930E+03  3.7673497912E+01  3.6798807119E+01  3.8236937321E-01
  6.0785842831E+03  2.0052958533E+03  7.5903405381E+03  3.7782893898E+01  3.6903868983E+01  3.8261257493E-01
  6.0843831234E+03  2.0076033725E+03  7.5866020961E+03  3.7892502156E+01  3.7009125539E+01  3.8285559818E-01
  6.0901819636E+03  2.0099113450E+03  7.5828690541E+03  3.8002322893E+01  3.7114576937E+01  3.8309844357E-01
  6.0959808038E+03  2.0122197705E+03  7.5791413991E+03  3.8112356316E+01  3.7220223328E+01  3.8334111173E-01
  6.1017796441E+03  2.0145286486E+03  7.5754191182E+03  3.8222602633E+01  3.7326064864E+01  3.8358360325E-01
  6.1075784843E+03  2.0168379791E+03  7.5717021987E+03  3.8333062050E+01  3.7432101695E+01  3.8382591876E-01
  6.1133773245E+03  2.0191477614E+03  7.5679906276E+03  3.8443734774E+01  3.7538333971E+01  3.8406805886E-01
  6.1191761648E+03  2.0214579954E+03  7.5642843922E+03  3.8554621012E+01  3.7644761843E+01  3.8431002416E-01
  6.1249750050E+03  2.0237686807E+03  7.5605834798E+03  3.8665720971E+01  3.7751385462E+01  3.8455181526E-01
  6.1307738452E+03  2.0260798169E+03  7.5568878778E+03  3.8777034859E+01  3.7858204978E+01  3.8479343277E-01
  6.1365726855E+03  2.0283914037E+03  7.5531975735E+03  3.8888562882E+01  3.7965220540E+01  3.8503487729E-01
  6.1423715257E+03  2.0307096148E+03  7.5495527308E+03  3.9000305248E+01  3.8072435491E+01  3.8527614941E-01
  6.1481703659E+03  2.0330306304E+03  7.5459283269E+03  3.9112262163E+01  3.8179848035E+01  3.8551724973E-01
  6.1539692062E+03  2.0353521070E+03  7.5423090774E+03  3.9224433834E+01  3.8287457116E+01  3.8575817886E-01
  6.1597680464E+03  2.0376740442E+03  7.5386949701E+03  3.9336820469E+01  3.8395262882E+01  3.8599893737E-01
  6.1655668866E+03  2.0399964417E+03  7.5350859929E+03  3.9449422275E+01  3.8503265485E+01  3.8623952586E-01
  6.1713657269E+03  2.0423192991E+03  7.5314821337E+03  3.9562239457E+01  3.8611465074E+01  3.8647994492E-01
  6.1771645671E+03  2.0446426161E+03  7.5278833805E+03  3.9675272225E+01  3.8719861797E+01  3.8672019515E-01
  6.1829634073E+03  2.0469663923E+03  7.5242897211E+03  3.9788520784E+01  3.8828455804E+01  3.8696027711E-01
  6.1887622476E+03  2.0492906275E+03  7.5207011438E+03  3.9901985341E+01  3.8937247244E+01  3.8720019141E-01
  6.1945610878E+03  2.0516153212E+03  7.5171176364E+03  4.0015666104E+01  3.9046236266E+01  3.8743993861E-01
  6.2003599280E+03  2.0539404732E+03  7.5135391872E+03  4.0129563280E+01  3.9155423020E+01  3.8767951931E-01
  6.2061587682E+03  2.0562660831E+03  7.5099657842E+03  4.0243677075E+01  3.9264807653E+01  3.8791893407E-01
  6.2119576085E+03  2.0585921505E+03  7.5063974156E+03  4.0358007697E+01  3.9374390314E+01  3.8815818348E-01
  6.2177564487E+03  2.0609186752E+03  7.5028340697E+03  4.0472555353E+01  3.9484171152E+01  3.8839726812E-01
  6.2235552889E+03  2.0632456568E+03  7.4992757347E+03  4.0587320249E+01  3.9594150315E+01  3.8863618854E-01
  6.2293541292E+03  2.0655730949E+03  7.4957223989E+03  4.0702302594E+01  3.9704327952E+01  3.8887494534E-01
  6.2351529694E+03  2.0679009892E+03  7.4921740506E+03  4.0817502593E+01  3.9814704210E+01  3.8911353907E-01
  6.2409518096E+03  2.0702293394E+03  7.4886306782E+03  4.0932920453E+01  3.9925279237E+01  3.8935197031E-01
  6.2467506499E+03  2.0725620453E+03  7.4851177575E+03  4.1048556383E+01  4.0036055365E+01  3.8959023962E-01
  6.2525494901E+03  2.0748994808E+03  7.4816375957E+03  4.1164410588E+01  4.0147032978E+01  3.8982834757E-01
  6.2583483303E+03  2.0772373819E+03  7.4781622758E+03  4.1280483277E+01  4.0258209845E+01  3.9006629470E-01
  6.2641471706E+03  2.0795757483E+03  7.4746917867E+03  4.1396774655E+01  4.0369586113E+01  3.9030408158E-01
  6.2699460108E+03  2.0819145797E+03  7.4712261172E+03  4.1513284930E+01  4.0481161929E+01  3.9054170878E-01
  6.2757448510E+03  2.0842538759E+03  7.4677652561E+03  4.1630014310E+01  4.0592937441E+01  3.9077917684E-01
  6.2815436913E+03  2.0865936363E+03  7.4643091924E+03  4.1746963000E+01  4.0704912796E+01  3.9101648632E-01
  6.2873425315E+03  2.0889338607E+03  7.4608579149E+03  4.1864131208E+01  4.0817088141E+01  3.9125363777E-01
  6.2931413717E+03  2.0912745488E+03  7.4574114126E+03  4.1981519141E+01  4.0929463623E+01  3.9149063174E-01
  6.2989402120E+03  2.0936157002E+03  7.4539696745E+03  4.2099127006E+01  4.1042039389E+01  3.9172746878E-01
  6.3047390522E+03  2.0959573145E+03  7.4505326897E+03  4.2216955011E+01  4.1154815586E+01  3.9196414945E-01
  6.3105378924E+03  2.0982993915E+03  7.4471004473E+03  4.2335003361E+01  4.1267792359E+01  3.9220067427E-01
  6.3163367327E+03  2.1006419309E+03  7.4436729362E+03  4.2453272265E+01  4.1380969856E+01  3.9243704381E-01
  6.3221355729E+03  2.1029849322E+03  7.4402501458E+03  4.2571761928E+01  4.1494348223E+01  3.9267325860E-01
  6.3279344131E+03  2.1053283951E+03  7.4368320651E+03  4.2690472559E+01  4.1607927605E+01  3.9290931919E-01
  6.3337332533E+03  2.1076723194E+03  7.4334186834E+03  4.2809404364E+01  4.1721708149E+01  3.9314522610E-01
  6.3395320936E+03  2.1100167047E+03  7.4300099900E+03  4.2928557551E+01  4.1835690001E+01  3.9338097989E-01
  6.3453309338E+03  2.1123615506E+03  7.4266059740E+03  4.3047932325E+01  4.1949873306E+01  3.9361658109E-01
  6.3511297740E+03  2.1147068568E+03  7.4232066249E+03  4.3167528895E+01  4.2064258210E+01  3.9385203024E-01
  6.3569286143E+03  2.1170597811E+03  7.4198589548E+03  4.3287347468E+01  4.2178849219E+01  3.9408732786E-01
  6.3627274545E+03  2.1194138325E+03  7.4165201610E+03  4.3407388249E+01  4.2293642559E+01  3.9432247449E-01
  6.3685262947E+03  2.1217683535E+03  7.4131859091E+03  4.3527651447E+01  4.2408637976E+01  3.9455747065E-01
  6.3743251350E+03  2.1241233436E+03  7.4098561888E+03  4.3648137268E+01  4.2523835615E+01  3.9479231687E-01
  6.3801239752E+03  2.1264788027E+03  7.4065309897E+03  4.3768845920E+01  4.2639235622E+01  3.9502701366E-01
  6.3859228154E+03  2.1288347303E+03  7.4032103016E+03  4.3889777609E+01  4.2754838141E+01  3.9526156156E-01
  6.3917216557E+03  2.1311911261E+03  7.3998941144E+03  4.4010932542E+01  4.2870643318E+01  3.9549596108E-01
  6.3975204959E+03  2.1335479897E+03  7.3965824178E+03  4.4132310927E+01  4.2986651296E+01  3.9573021274E-01
  6.4033193361E+03  2.1359053210E+03  7.3932752017E+03  4.4253912971E+01  4.3102862221E+01  3.9596431705E-01
  6.4091181764E+03  2.1382631194E+03  7.3899724561E+03  4.4375738880E+01  4.3219276237E+01  3.9619827454E-01
  6.4149170166E+03  2.1406213848E+03  7.3866741707E+03  4.4497788861E+01  4.3335893489E+01  3.9643208571E-01
  6.4207158568E+03  2.1429801167E+03  7.3833803356E+03  4.4620063123E+01  4.3452714120E+01  3.9666575108E-01
  6.4265146971E+03  2.1453393148E+03  7.3800909408E+03  4.4742561870E+01  4.3569738274E+01  3.9689927115E-01
  6.4323135373E+03  2.1476989788E+03  7.3768059763E+03  4.4865285311E+01  4.3686966096E+01  3.9713264645E-01
  6.4381123775E+03  2.1500591084E+03  7.3735254320E+03  4.4988233653E+01  4.3804397729E+01  3.9736587747E-01
  6.4439112178E+03  2.1524197033E+03  7.3702492982E+03  4.5111407103E+01  4.3922033316E+01  3.9759896472E-01
  6.4497100580E+03  2.1547807631E+03  7.3669775648E+03  4.5234805867E+01  4.4039873002E+01  3.9783190872E-01
  6.4555088982E+03  2.1571422874E+03  7.3637102221E+03  4.5358430153E+01  4.4157916928E+01  3.9806470995E-01
  6.4613077385E+03  2.1595045307E+03  7.3604489493E+03  4.5482280168E+01  4.4276165408E+01  3.9829736894E-01
  6.4671065787E+03  2.1618744444E+03  7.3572397662E+03  4.5606356118E+01  4.4394623193E+01  3.9852988617E-01
  6.4729054189E+03  2.1642448314E+03  7.3540348569E+03  4.5730658211E+01  4.4513285692E+01  3.9876226215E-01
  6.4787042591E+03  2.1666156913E+03  7.3508342116E+03  4.5855186654E+01  4.4632153048E+01  3.9899449738E-01
  6.4845030994E+03  2.1689870238E+03  7.3476378209E+03  4.5980106644E+01  4.4751381693E+01  3.9922659235E-01
  6.4903019396E+03  2.1713588286E+03  7.3444456754E+03  4.6105343720E+01  4.4870900998E+01  3.9945854754E-01
  6.4961007798E+03  2.1737311053E+03  7.3412577656E+03  4.6230809065E+01  4.4990626766E+01  3.9969036345E-01
  6.5018996201E+03  2.1761038537E+03  7.3380740822E+03  4.6356502889E+01  4.5110559141E+01  3.9992204056E-01
  6.5076984603E+03  2.1784770733E+03  7.3348946158E+03  4.6482425401E+01  4.5230698268E+01  4.0015357936E-01
  6.5134973005E+03  2.1808507639E+03  7.3317193570E+03  4.6608576812E+01  4.5351044292E+01  4.0038498033E-01
  6.5192961408E+03  2.1832249251E+03  7.3285482966E+03  4.6734957331E+01  4.5471597357E+01  4.0061624395E-01
  6.5250949810E+03  2.1855995566E+03  7.3253814252E+03  4.6861567170E+01  4.5592357609E+01  4.0084737071E-01
  6.5308938212E+03  2.1879746581E+03  7.3222187336E+03  4.6988406539E+01  4.5713325189E+01  4.0107836108E-01
  6.5366926615E+03  2.1903502293E+03  7.3190602127E+03  4.7115475646E+01  4.5834500244E+01  4.0130921555E-01
  6.5424915017E+03  2.1927262698E+03  7.3159058531E+03  4.7242774704E+01  4.5955882917E+01  4.0153993459E-01
  6.5482903419E+03  2.1951027793E+03  7.3127556458E+03  4.7370303921E+01  4.6077473351E+01  4.0177051867E-01
  6.5540891822E+03  2.1974797576E+03  7.3096095816E+03  4.7498063508E+01  4.6199271691E+01  4.0200096829E-01
  6.5598880224E+03  2.1998572041E+03  7.3064676513E+03  4.7626053675E+01  4.6321278079E+01  4.0223128389E-01
  6.5656868626E+03  2.2022351187E+03  7.3033298460E+03  4.7754274633E+01  4.6443492660E+01  4.0246146597E-01
