#[MATERIAL DEFINITION FOR MC-GPU: interaction mean free path and sampling data from PENELOPE 2006]
#[MATERIAL NAME]
# BONE, COMPACT (ICRU)  (119)                                   
#[NOMINAL DENSITY (g/cm^3)]
#   1.85000000
#[NUMBER OF DATA VALUES]
#   8192
#[MEAN FREE PATHS (cm) (ie, average distance between interactions)]
#[Energy (eV)     | Rayleigh        | Compton         | Photoelectric   | TOTAL (+pair prod) (cm) | Rayleigh: max cumul prob F^2]
  5.0000000000E+03  1.5123398214E-05  4.8041544873E+00  4.0253972712E-03  1.5066745095E-05  2.6785187541E-01
  5.0146484375E+03  1.5211748712E-05  4.7972957248E+00  4.0575997743E-03  1.5154885711E-05  2.6859448191E-01
  5.0292968750E+03  1.5300355384E-05  4.7904667177E+00  4.0899638499E-03  1.5243282322E-05  2.6933595748E-01
  5.0439453125E+03  1.5389218225E-05  4.7836672509E+00  4.1224898272E-03  1.5331934924E-05  2.7007630779E-01
  5.0585937500E+03  1.5478337228E-05  4.7768971112E+00  4.1551780355E-03  1.5420843509E-05  2.7081553856E-01
  5.0732421875E+03  1.5567712387E-05  4.7701560879E+00  4.1880288033E-03  1.5510008071E-05  2.7155365545E-01
  5.0878906250E+03  1.5657342903E-05  4.7634820721E+00  4.2210424590E-03  1.5599427820E-05  2.7229066413E-01
  5.1025390625E+03  1.5747228533E-05  4.7568854113E+00  4.2542193308E-03  1.5689102514E-05  2.7302657029E-01
  5.1171875000E+03  1.5837370284E-05  4.7503167573E+00  4.2875597463E-03  1.5779033150E-05  2.7376137956E-01
  5.1318359375E+03  1.5927768148E-05  4.7437759114E+00  4.3210640330E-03  1.5869219723E-05  2.7449509761E-01
  5.1464843750E+03  1.6018422119E-05  4.7372626771E+00  4.3547325180E-03  1.5959662227E-05  2.7522773006E-01
  5.1611328125E+03  1.6109332191E-05  4.7307768598E+00  4.3885655282E-03  1.6050360656E-05  2.7595928256E-01
  5.1757812500E+03  1.6200497490E-05  4.7243839671E+00  4.4225633901E-03  1.6141314142E-05  2.7668976072E-01
  5.1904296875E+03  1.6291918625E-05  4.7180361605E+00  4.4567264298E-03  1.6232523289E-05  2.7741917015E-01
  5.2050781250E+03  1.6383595831E-05  4.7117147365E+00  4.4910549732E-03  1.6323988334E-05  2.7814751647E-01
  5.2197265625E+03  1.6475529103E-05  4.7054195118E+00  4.5255493459E-03  1.6415709268E-05  2.7887480526E-01
  5.2343750000E+03  1.6567718435E-05  4.6991503045E+00  4.5602098733E-03  1.6507686087E-05  2.7960104212E-01
  5.2490234375E+03  1.6660163807E-05  4.6929095091E+00  4.5950368801E-03  1.6599918772E-05  2.8032623265E-01
  5.2636718750E+03  1.6752864848E-05  4.6867731426E+00  4.6300306911E-03  1.6692406955E-05  2.8105038224E-01
  5.2783203125E+03  1.6845821926E-05  4.6806618200E+00  4.6651916308E-03  1.6785151001E-05  2.8177349598E-01
  5.2929687500E+03  1.6939035034E-05  4.6745753698E+00  4.7005200230E-03  1.6878150903E-05  2.8249557890E-01
  5.3076171875E+03  1.7032504167E-05  4.6685136225E+00  4.7360161916E-03  1.6971406656E-05  2.8321663605E-01
  5.3222656250E+03  1.7126229317E-05  4.6624764100E+00  4.7716804600E-03  1.7064918253E-05  2.8393667244E-01
  5.3369140625E+03  1.7220210547E-05  4.6564784521E+00  4.8075131514E-03  1.7158685756E-05  2.8465569310E-01
  5.3515625000E+03  1.7314448072E-05  4.6505684228E+00  4.8435145886E-03  1.7252709380E-05  2.8537370304E-01
  5.3662109375E+03  1.7408941600E-05  4.6446820187E+00  4.8796850943E-03  1.7346988834E-05  2.8609070727E-01
  5.3808593750E+03  1.7503691123E-05  4.6388190815E+00  4.9160249906E-03  1.7441524111E-05  2.8680671079E-01
  5.3955078125E+03  1.7598696636E-05  4.6329794539E+00  4.9525345995E-03  1.7536315205E-05  2.8752171857E-01
  5.4101562500E+03  1.7693958132E-05  4.6271629805E+00  4.9892142427E-03  1.7631362111E-05  2.8823573561E-01
  5.4248046875E+03  1.7789475887E-05  4.6213886255E+00  5.0260642417E-03  1.7726665102E-05  2.8894876688E-01
  5.4394531250E+03  1.7885250462E-05  4.6156940106E+00  5.0630849174E-03  1.7822224736E-05  2.8966081733E-01
  5.4541015625E+03  1.7981281011E-05  4.6100216996E+00  5.1002765907E-03  1.7918040172E-05  2.9037189194E-01
  5.4687500000E+03  1.8077567527E-05  4.6043715454E+00  5.1376395821E-03  1.8014111405E-05  2.9108199565E-01
  5.4833984375E+03  1.8174110005E-05  4.5987434026E+00  5.1752224778E-03  1.8110439021E-05  2.9179113340E-01
  5.4980468750E+03  1.8270908440E-05  4.5931371268E+00  5.2130445806E-03  1.8207023237E-05  2.9249931013E-01
  5.5126953125E+03  1.8367963237E-05  4.5875684939E+00  5.2510402259E-03  1.8303863648E-05  2.9320653076E-01
  5.5273437500E+03  1.8465275491E-05  4.5820790596E+00  5.2892097382E-03  1.8400961340E-05  2.9391280022E-01
  5.5419921875E+03  1.8562843698E-05  4.5766106966E+00  5.3275534414E-03  1.8498314819E-05  2.9461812340E-01
  5.5566406250E+03  1.8660667852E-05  4.5711632686E+00  5.3660716594E-03  1.8595924080E-05  2.9532250522E-01
  5.5712890625E+03  1.8758747946E-05  4.5657366406E+00  5.4047647157E-03  1.8693789116E-05  2.9602595058E-01
  5.5859375000E+03  1.8857083976E-05  4.5603306788E+00  5.4436329337E-03  1.8791909923E-05  2.9672846435E-01
  5.6005859375E+03  1.8955676160E-05  4.5549511386E+00  5.4826766361E-03  1.8890286717E-05  2.9743005142E-01
  5.6152343750E+03  1.9054526787E-05  4.5496572852E+00  5.5218961457E-03  1.8988921775E-05  2.9813071658E-01
  5.6298828125E+03  1.9153633352E-05  4.5443833525E+00  5.5612917850E-03  1.9087812606E-05  2.9883046421E-01
  5.6445312500E+03  1.9252995851E-05  4.5391292139E+00  5.6008638759E-03  1.9186959206E-05  2.9952929856E-01
  5.6591796875E+03  1.9352614276E-05  4.5338947442E+00  5.6406127404E-03  1.9286361569E-05  3.0022722389E-01
  5.6738281250E+03  1.9452488622E-05  4.5286798190E+00  5.6805386999E-03  1.9386019689E-05  3.0092424445E-01
  5.6884765625E+03  1.9552618884E-05  4.5234843152E+00  5.7206420758E-03  1.9485933560E-05  3.0162036448E-01
  5.7031250000E+03  1.9653008102E-05  4.5183666130E+00  5.7609231891E-03  1.9586106206E-05  3.0231558821E-01
  5.7177734375E+03  1.9753653790E-05  4.5132781715E+00  5.8013823605E-03  1.9686535155E-05  3.0300991988E-01
  5.7324218750E+03  1.9854555404E-05  4.5082084580E+00  5.8420199105E-03  1.9787219866E-05  3.0370336371E-01
  5.7470703125E+03  1.9955712938E-05  4.5031573559E+00  5.8828361591E-03  1.9888160334E-05  3.0439592391E-01
  5.7617187500E+03  2.0057126385E-05  4.4981247497E+00  5.9238314264E-03  1.9989356554E-05  3.0508760472E-01
  5.7763671875E+03  2.0158795742E-05  4.4931105249E+00  5.9650060320E-03  2.0090808520E-05  3.0577841032E-01
  5.7910156250E+03  2.0260723291E-05  4.4881488590E+00  6.0063602951E-03  2.0192518502E-05  3.0646834494E-01
  5.8056640625E+03  2.0362908928E-05  4.4832375044E+00  6.0478945350E-03  2.0294486396E-05  3.0715741276E-01
  5.8203125000E+03  2.0465350490E-05  4.4783438803E+00  6.0896090704E-03  2.0396710052E-05  3.0784561798E-01
  5.8349609375E+03  2.0568047971E-05  4.4734678784E+00  6.1315042200E-03  2.0499189467E-05  3.0853296478E-01
  5.8496093750E+03  2.0671001367E-05  4.4686093911E+00  6.1735803019E-03  2.0601924634E-05  3.0921945735E-01
  5.8642578125E+03  2.0774210671E-05  4.4637683121E+00  6.2158376341E-03  2.0704915548E-05  3.0990509986E-01
  5.8789062500E+03  2.0877676284E-05  4.4589494390E+00  6.2582765346E-03  2.0808162607E-05  3.1058989648E-01
  5.8935546875E+03  2.0981402755E-05  4.4542072613E+00  6.3008973207E-03  2.0911670332E-05  3.1127385137E-01
  5.9082031250E+03  2.1085385159E-05  4.4494818804E+00  6.3437003096E-03  2.1015433828E-05  3.1195696871E-01
  5.9228515625E+03  2.1189623488E-05  4.4447731953E+00  6.3866858184E-03  2.1119453090E-05  3.1263925263E-01
  5.9375000000E+03  2.1294117739E-05  4.4400811059E+00  6.4298541637E-03  2.1223728112E-05  3.1332070729E-01
  5.9521484375E+03  2.1398867905E-05  4.4354055130E+00  6.4732056619E-03  2.1328258889E-05  3.1400133677E-01
  5.9667968750E+03  2.1503873982E-05  4.4307463182E+00  6.5167406293E-03  2.1433045416E-05  3.1468114473E-01
  5.9814453125E+03  2.1609139223E-05  4.4261366451E+00  6.5604593817E-03  2.1538090927E-05  3.1536013472E-01
  5.9960937500E+03  2.1714663257E-05  4.4215721034E+00  6.6043622349E-03  2.1643395054E-05  3.1603831026E-01
  6.0107421875E+03  2.1820443230E-05  4.4170233893E+00  6.6485516120E-03  2.1748956052E-05  3.1671567487E-01
  6.0253906250E+03  2.1926479137E-05  4.4124904096E+00  6.6929640788E-03  2.1854773226E-05  3.1739223209E-01
  6.0400390625E+03  2.2032770973E-05  4.4079730717E+00  6.7375630140E-03  2.1960846173E-05  3.1806798543E-01
  6.0546875000E+03  2.2139318731E-05  4.4034712841E+00  6.7823487375E-03  2.2067174889E-05  3.1874293842E-01
  6.0693359375E+03  2.2246122408E-05  4.3989849557E+00  6.8273215689E-03  2.2173759368E-05  3.1941709456E-01
  6.0839843750E+03  2.2353186735E-05  4.3945670996E+00  6.8724818278E-03  2.2280604313E-05  3.2009045737E-01
  6.0986328125E+03  2.2460507636E-05  4.3901713276E+00  6.9178298332E-03  2.2387705674E-05  3.2076303036E-01
  6.1132812500E+03  2.2568084477E-05  4.3857904823E+00  6.9633659042E-03  2.2495062821E-05  3.2143481703E-01
  6.1279296875E+03  2.2675917255E-05  4.3814244776E+00  7.0090903594E-03  2.2602675750E-05  3.2210582089E-01
  6.1425781250E+03  2.2784005964E-05  4.3770732279E+00  7.0550035171E-03  2.2710544457E-05  3.2277604544E-01
  6.1572265625E+03  2.2892350598E-05  4.3727366482E+00  7.1011056957E-03  2.2818668935E-05  3.2344549417E-01
  6.1718750000E+03  2.3000951614E-05  4.3684218801E+00  7.1473972130E-03  2.2927049639E-05  3.2411417058E-01
  6.1865234375E+03  2.3109811810E-05  4.3641723608E+00  7.1938783866E-03  2.3035689349E-05  3.2478207815E-01
  6.2011718750E+03  2.3218927942E-05  4.3599370108E+00  7.2405495341E-03  2.3144584842E-05  3.2544922038E-01
  6.2158203125E+03  2.3328300006E-05  4.3557157496E+00  7.2874109724E-03  2.3253736115E-05  3.2611560074E-01
  6.2304687500E+03  2.3437927998E-05  4.3515084973E+00  7.3344630187E-03  2.3363143161E-05  3.2678122273E-01
  6.2451171875E+03  2.3547811911E-05  4.3473151746E+00  7.3821177539E-03  2.3472810140E-05  3.2744608981E-01
  6.2597656250E+03  2.3657951742E-05  4.3431357028E+00  7.4302010388E-03  2.3582735245E-05  3.2811020546E-01
  6.2744140625E+03  2.3768347997E-05  4.3389843307E+00  7.4784830325E-03  2.3692916644E-05  3.2877357387E-01
  6.2890625000E+03  2.3879001660E-05  4.3348882016E+00  7.5269640832E-03  2.3803355317E-05  3.2943619962E-01
  6.3037109375E+03  2.3989911240E-05  4.3308054555E+00  7.5756445394E-03  2.3914049778E-05  3.3009808540E-01
  6.3183593750E+03  2.4101076731E-05  4.3267360176E+00  7.6245247488E-03  2.4025000025E-05  3.3075923386E-01
  6.3330078125E+03  2.4212498129E-05  4.3226798140E+00  7.6736050594E-03  2.4136206052E-05  3.3141964763E-01
  6.3476562500E+03  2.4324175428E-05  4.3186367711E+00  7.7228858187E-03  2.4247667854E-05  3.3207932935E-01
  6.3623046875E+03  2.4436108625E-05  4.3146068160E+00  7.7723673739E-03  2.4359385427E-05  3.3273828167E-01
  6.3769531250E+03  2.4548297779E-05  4.3106047369E+00  7.8220500723E-03  2.4471358833E-05  3.3339650723E-01
  6.3916015625E+03  2.4660742997E-05  4.3066546140E+00  7.8719342606E-03  2.4583588175E-05  3.3405400866E-01
  6.4062500000E+03  2.4773444099E-05  4.3027171411E+00  7.9220202855E-03  2.4696073276E-05  3.3471078861E-01
  6.4208984375E+03  2.4886401080E-05  4.2987922489E+00  7.9723084935E-03  2.4808814130E-05  3.3536684973E-01
  6.4355468750E+03  2.4999613936E-05  4.2948798687E+00  8.0227992308E-03  2.4921810734E-05  3.3602219466E-01
  6.4501953125E+03  2.5113082662E-05  4.2909799322E+00  8.0734928434E-03  2.5035063081E-05  3.3667682605E-01
  6.4648437500E+03  2.5226807252E-05  4.2870923717E+00  8.1243896771E-03  2.5148571168E-05  3.3733074653E-01
  6.4794921875E+03  2.5340787418E-05  4.2832265307E+00  8.1754900774E-03  2.5262334707E-05  3.3798395876E-01
  6.4941406250E+03  2.5455022138E-05  4.2794154837E+00  8.2270692277E-03  2.5376355301E-05  3.3863646538E-01
  6.5087890625E+03  2.5569512699E-05  4.2756164029E+00  8.2788813039E-03  2.5490631862E-05  3.3928826904E-01
  6.5234375000E+03  2.5684259095E-05  4.2718292238E+00  8.3309012098E-03  2.5605164145E-05  3.3993937237E-01
  6.5380859375E+03  2.5799261322E-05  4.2680538827E+00  8.3831293043E-03  2.5719952144E-05  3.4058977804E-01
  6.5527343750E+03  2.5914519375E-05  4.2642903159E+00  8.4355659463E-03  2.5834995854E-05  3.4123948868E-01
  6.5673828125E+03  2.6030033248E-05  4.2605384608E+00  8.4882114942E-03  2.5950295272E-05  3.4188850694E-01
  6.5820312500E+03  2.6145802939E-05  4.2567982548E+00  8.5410663065E-03  2.6065850391E-05  3.4253683547E-01
  6.5966796875E+03  2.6261825076E-05  4.2531182922E+00  8.5941307413E-03  2.6181657866E-05  3.4318447692E-01
  6.6113281250E+03  2.6378102895E-05  4.2494511370E+00  8.6474051566E-03  2.6297720909E-05  3.4383143393E-01
  6.6259765625E+03  2.6494636494E-05  4.2457952494E+00  8.7008899101E-03  2.6414039619E-05  3.4447770914E-01
  6.6406250000E+03  2.6611425867E-05  4.2421505700E+00  8.7545853593E-03  2.6530613989E-05  3.4512330520E-01
  6.6552734375E+03  2.6728471011E-05  4.2385170399E+00  8.8084918618E-03  2.6647444016E-05  3.4576822477E-01
  6.6699218750E+03  2.6845771920E-05  4.2348946004E+00  8.8626097745E-03  2.6764529695E-05  3.4641247048E-01
  6.6845703125E+03  2.6963328590E-05  4.2312831935E+00  8.9169394544E-03  2.6881871021E-05  3.4705604498E-01
  6.6992187500E+03  2.7081137541E-05  4.2277138458E+00  8.9714812583E-03  2.6999464538E-05  3.4769895091E-01
  6.7138671875E+03  2.7199200283E-05  4.2241725331E+00  9.0262355428E-03  2.7117311745E-05  3.4834119093E-01
  6.7285156250E+03  2.7317518737E-05  4.2206418951E+00  9.0812026642E-03  2.7235414551E-05  3.4898276767E-01
  6.7431640625E+03  2.7436092899E-05  4.2171218766E+00  9.1363829786E-03  2.7353772951E-05  3.4962368378E-01
  6.7578125000E+03  2.7554922762E-05  4.2136124226E+00  9.1917768420E-03  2.7472386940E-05  3.5026394190E-01
  6.7724609375E+03  2.7674008323E-05  4.2101134786E+00  9.2473846101E-03  2.7591256514E-05  3.5090354468E-01
  6.7871093750E+03  2.7793349576E-05  4.2066249906E+00  9.3032066386E-03  2.7710381669E-05  3.5154249475E-01
  6.8017578125E+03  2.7912945071E-05  4.2031560297E+00  9.3592432827E-03  2.7829760961E-05  3.5218079477E-01
  6.8164062500E+03  2.8032790269E-05  4.1997348308E+00  9.4154948977E-03  2.7949389881E-05  3.5281844737E-01
  6.8310546875E+03  2.8152891099E-05  4.1963237520E+00  9.4719618386E-03  2.8069274320E-05  3.5345545520E-01
  6.8457031250E+03  2.8273247556E-05  4.1929227416E+00  9.5286444600E-03  2.8189414275E-05  3.5409182089E-01
  6.8603515625E+03  2.8393859634E-05  4.1895317486E+00  9.5855431166E-03  2.8309809739E-05  3.5472754709E-01
  6.8750000000E+03  2.8514727331E-05  4.1861507220E+00  9.6426581629E-03  2.8430460709E-05  3.5536263589E-01
  6.8896484375E+03  2.8635850640E-05  4.1827796115E+00  9.6999899529E-03  2.8551367180E-05  3.5599708877E-01
  6.9042968750E+03  2.8757229557E-05  4.1794183671E+00  9.7575388407E-03  2.8672529148E-05  3.5663090747E-01
  6.9189453125E+03  2.8878858138E-05  4.1760950982E+00  9.8153051800E-03  2.8793940704E-05  3.5726409373E-01
  6.9335937500E+03  2.9000738736E-05  4.1727982136E+00  9.8732893247E-03  2.8915604187E-05  3.5789664931E-01
  6.9482421875E+03  2.9122874868E-05  4.1695108814E+00  9.9314916279E-03  2.9037523093E-05  3.5852857595E-01
  6.9628906250E+03  2.9245266531E-05  4.1662330539E+00  9.9899124431E-03  2.9159697417E-05  3.5915987543E-01
  6.9775390625E+03  2.9367913718E-05  4.1629646838E+00  1.0048552123E-02  2.9282127156E-05  3.5979054948E-01
  6.9921875000E+03  2.9490816426E-05  4.1597057239E+00  1.0107411021E-02  2.9404812304E-05  3.6042059988E-01
  7.0068359375E+03  2.9613974650E-05  4.1564561276E+00  1.0166622878E-02  2.9527753983E-05  3.6105002838E-01
  7.0214843750E+03  2.9737388385E-05  4.1532158484E+00  1.0226209023E-02  2.9650952352E-05  3.6167883677E-01
  7.0361328125E+03  2.9861047351E-05  4.1500252721E+00  1.0286018072E-02  2.9774395908E-05  3.6230702679E-01
  7.0507812500E+03  2.9984961036E-05  4.1468465837E+00  1.0346050386E-02  2.9898094084E-05  3.6293460023E-01
  7.0654296875E+03  3.0109130152E-05  4.1436769195E+00  1.0406306326E-02  3.0022047585E-05  3.6356155886E-01
  7.0800781250E+03  3.0233554691E-05  4.1405162352E+00  1.0466786254E-02  3.0146256406E-05  3.6418790446E-01
  7.0947265625E+03  3.0358234650E-05  4.1373644870E+00  1.0527490530E-02  3.0270720543E-05  3.6481363880E-01
  7.1093750000E+03  3.0483170025E-05  4.1342216311E+00  1.0588419516E-02  3.0395439990E-05  3.6543876367E-01
  7.1240234375E+03  3.0608360810E-05  4.1310876243E+00  1.0649573571E-02  3.0520414744E-05  3.6606328084E-01
  7.1386718750E+03  3.0733805697E-05  4.1279673218E+00  1.0710953056E-02  3.0645643503E-05  3.6668719211E-01
  7.1533203125E+03  3.0859496149E-05  4.1248925129E+00  1.0772558332E-02  3.0771117782E-05  3.6731049926E-01
  7.1679687500E+03  3.0985441930E-05  4.1218262773E+00  1.0834389758E-02  3.0896847286E-05  3.6793320408E-01
  7.1826171875E+03  3.1111643035E-05  4.1187685739E+00  1.0896447694E-02  3.1022832009E-05  3.6855530836E-01
  7.1972656250E+03  3.1238099459E-05  4.1157193614E+00  1.0958732500E-02  3.1149071948E-05  3.6917681390E-01
  7.2119140625E+03  3.1364811197E-05  4.1126785991E+00  1.1021244535E-02  3.1275567098E-05  3.6979772249E-01
  7.2265625000E+03  3.1491778245E-05  4.1096462465E+00  1.1083984158E-02  3.1402317454E-05  3.7041803592E-01
  7.2412109375E+03  3.1619000598E-05  4.1066222634E+00  1.1146951730E-02  3.1529323012E-05  3.7103775600E-01
  7.2558593750E+03  3.1746476347E-05  4.1036135359E+00  1.1210147607E-02  3.1656581873E-05  3.7165688453E-01
  7.2705078125E+03  3.1874198210E-05  4.1006462504E+00  1.1273572151E-02  3.1784086799E-05  3.7227542330E-01
  7.2851562500E+03  3.2002175299E-05  4.0976870765E+00  1.1337225718E-02  3.1911846847E-05  3.7289337413E-01
  7.2998046875E+03  3.2130407607E-05  4.0947359757E+00  1.1401108667E-02  3.2039862012E-05  3.7351073881E-01
  7.3144531250E+03  3.2258895130E-05  4.0917929099E+00  1.1465221357E-02  3.2168132289E-05  3.7412751916E-01
  7.3291015625E+03  3.2387637864E-05  4.0888578411E+00  1.1529564145E-02  3.2296657673E-05  3.7474371698E-01
  7.3437500000E+03  3.2516635804E-05  4.0859307318E+00  1.1594137389E-02  3.2425438161E-05  3.7535933408E-01
  7.3583984375E+03  3.2645888945E-05  4.0830115444E+00  1.1658941448E-02  3.2554473746E-05  3.7597437227E-01
  7.3730468750E+03  3.2775396207E-05  4.0801040288E+00  1.1723976678E-02  3.2683763356E-05  3.7658883337E-01
  7.3876953125E+03  3.2905148717E-05  4.0772391707E+00  1.1789243437E-02  3.2813298170E-05  3.7720271919E-01
  7.4023437500E+03  3.3035156350E-05  4.0743819930E+00  1.1854742082E-02  3.2943088003E-05  3.7781603155E-01
  7.4169921875E+03  3.3165419100E-05  4.0715324600E+00  1.1920472970E-02  3.3073132851E-05  3.7842877218E-01
  7.4316406250E+03  3.3295936962E-05  4.0686905363E+00  1.1986436458E-02  3.3203432710E-05  3.7904094216E-01
  7.4462890625E+03  3.3426709932E-05  4.0658561866E+00  1.2052632902E-02  3.3333987574E-05  3.7965254256E-01
  7.4609375000E+03  3.3557738006E-05  4.0630293758E+00  1.2119062659E-02  3.3464797438E-05  3.8026357453E-01
  7.4755859375E+03  3.3689021178E-05  4.0602100692E+00  1.2185726085E-02  3.3595862300E-05  3.8087403921E-01
  7.4902343750E+03  3.3820559444E-05  4.0573982322E+00  1.2252623536E-02  3.3727182152E-05  3.8148393776E-01
  7.5048828125E+03  3.3952343042E-05  4.0546269773E+00  1.2319755368E-02  3.3858747291E-05  3.8209327134E-01
  7.5195312500E+03  3.4084380479E-05  4.0518670314E+00  1.2387121937E-02  3.3990566174E-05  3.8270204111E-01
  7.5341796875E+03  3.4216672933E-05  4.0491143300E+00  1.2454723598E-02  3.4122639972E-05  3.8331024822E-01
  7.5488281250E+03  3.4349220397E-05  4.0463688401E+00  1.2522560708E-02  3.4254968679E-05  3.8391789386E-01
  7.5634765625E+03  3.4482022869E-05  4.0436305288E+00  1.2590633620E-02  3.4387552291E-05  3.8452497920E-01
  7.5781250000E+03  3.4615080343E-05  4.0408993634E+00  1.2658942691E-02  3.4520390803E-05  3.8513150540E-01
  7.5927734375E+03  3.4748392813E-05  4.0381753116E+00  1.2727488274E-02  3.4653484211E-05  3.8573747364E-01
  7.6074218750E+03  3.4881960277E-05  4.0354583412E+00  1.2796270726E-02  3.4786832510E-05  3.8634288512E-01
  7.6220703125E+03  3.5015776737E-05  4.0327681678E+00  1.2865290399E-02  3.4920429739E-05  3.8694774102E-01
  7.6367187500E+03  3.5149843264E-05  4.0301009678E+00  1.2934547650E-02  3.5054276960E-05  3.8755204252E-01
  7.6513671875E+03  3.5284164707E-05  4.0274406379E+00  1.3004042831E-02  3.5188378996E-05  3.8815579082E-01
  7.6660156250E+03  3.5418741062E-05  4.0247871473E+00  1.3073776297E-02  3.5322735843E-05  3.8875898710E-01
  7.6806640625E+03  3.5553572324E-05  4.0221404656E+00  1.3143748402E-02  3.5457347496E-05  3.8936163259E-01
  7.6953125000E+03  3.5688658488E-05  4.0195005623E+00  1.3213959500E-02  3.5592213949E-05  3.8996372846E-01
  7.7099609375E+03  3.5823999549E-05  4.0168674071E+00  1.3284409944E-02  3.5727335199E-05  3.9056527593E-01
  7.7246093750E+03  3.5959595504E-05  4.0142409700E+00  1.3355100087E-02  3.5862711241E-05  3.9116627620E-01
  7.7392578125E+03  3.6095445531E-05  4.0116238300E+00  1.3426030283E-02  3.5998341259E-05  3.9176673049E-01
  7.7539062500E+03  3.6231540456E-05  4.0090451474E+00  1.3497200884E-02  3.6134216130E-05  3.9236664001E-01
  7.7685546875E+03  3.6367890199E-05  4.0064729846E+00  1.3568612244E-02  3.6270345718E-05  3.9296600597E-01
  7.7832031250E+03  3.6504494755E-05  4.0039073129E+00  1.3640264716E-02  3.6406730019E-05  3.9356482959E-01
  7.7978515625E+03  3.6641354120E-05  4.0013481038E+00  1.3712158651E-02  3.6543369028E-05  3.9416311209E-01
  7.8125000000E+03  3.6778468288E-05  3.9987953289E+00  1.3784294403E-02  3.6680262740E-05  3.9476085471E-01
  7.8271484375E+03  3.6915837256E-05  3.9962489601E+00  1.3856672323E-02  3.6817411151E-05  3.9535805865E-01
  7.8417968750E+03  3.7053461018E-05  3.9937089692E+00  1.3929292764E-02  3.6954814255E-05  3.9595472516E-01
  7.8564453125E+03  3.7191339569E-05  3.9911753285E+00  1.4002156077E-02  3.7092472048E-05  3.9655085547E-01
  7.8710937500E+03  3.7329467970E-05  3.9886633008E+00  1.4075262614E-02  3.7230379617E-05  3.9714645080E-01
  7.8857421875E+03  3.7467845346E-05  3.9861753378E+00  1.4148612726E-02  3.7368536094E-05  3.9774151240E-01
  7.9003906250E+03  3.7606477438E-05  3.9836935398E+00  1.4222206766E-02  3.7506947187E-05  3.9833604150E-01
  7.9150390625E+03  3.7745364242E-05  3.9812178799E+00  1.4296045084E-02  3.7645612891E-05  3.9893003934E-01
  7.9296875000E+03  3.7884505753E-05  3.9787483318E+00  1.4370128032E-02  3.7784533202E-05  3.9952350711E-01
  7.9443359375E+03  3.8023901966E-05  3.9762848690E+00  1.4444455960E-02  3.7923708115E-05  4.0011644548E-01
  7.9589843750E+03  3.8163552877E-05  3.9738274655E+00  1.4519029219E-02  3.8063137626E-05  4.0070885517E-01
  7.9736328125E+03  3.8303458481E-05  3.9713760952E+00  1.4593848159E-02  3.8202821729E-05  4.0130073692E-01
  7.9882812500E+03  3.8443618772E-05  3.9689307322E+00  1.4668913132E-02  3.8342760420E-05  4.0189209147E-01
  8.0029296875E+03  3.8584026434E-05  3.9665138709E+00  1.4744479800E-02  3.8482948161E-05  4.0248291957E-01
  8.0175781250E+03  3.8724685691E-05  3.9641122274E+00  1.4821321101E-02  3.8623394385E-05  4.0307322198E-01
  8.0322265625E+03  3.8865599566E-05  3.9617164179E+00  1.4898420596E-02  3.8764095150E-05  4.0366299947E-01
  8.0468750000E+03  3.9006768054E-05  3.9593264177E+00  1.4975778674E-02  3.8905050451E-05  4.0425225278E-01
  8.0615234375E+03  3.9148191150E-05  3.9569422021E+00  1.5053395725E-02  3.9046260283E-05  4.0484098270E-01
  8.0761718750E+03  3.9289868850E-05  3.9545637468E+00  1.5131272139E-02  3.9187724642E-05  4.0542918999E-01
  8.0908203125E+03  3.9431801148E-05  3.9521910273E+00  1.5209408306E-02  3.9329443522E-05  4.0601687544E-01
  8.1054687500E+03  3.9573988041E-05  3.9498240195E+00  1.5287804614E-02  3.9471416920E-05  4.0660403981E-01
  8.1201171875E+03  3.9716429524E-05  3.9474626994E+00  1.5366461453E-02  3.9613644830E-05  4.0719068389E-01
  8.1347656250E+03  3.9859118564E-05  3.9451318699E+00  1.5445379213E-02  3.9756120260E-05  4.0777680847E-01
  8.1494140625E+03  4.0002060488E-05  3.9428124488E+00  1.5524558281E-02  3.9898848505E-05  4.0836241433E-01
  8.1640625000E+03  4.0145256940E-05  3.9404985530E+00  1.5603999048E-02  4.0041831202E-05  4.0894750228E-01
  8.1787109375E+03  4.0288707916E-05  3.9381901595E+00  1.5683701902E-02  4.0185068347E-05  4.0953207311E-01
  8.1933593750E+03  4.0432413412E-05  3.9358872454E+00  1.5763667231E-02  4.0328559934E-05  4.1011612763E-01
  8.2080078125E+03  4.0576373422E-05  3.9335897879E+00  1.5843895423E-02  4.0472305959E-05  4.1069966662E-01
  8.2226562500E+03  4.0720587943E-05  3.9312977645E+00  1.5924386868E-02  4.0616306418E-05  4.1128269091E-01
  8.2373046875E+03  4.0865056970E-05  3.9290111525E+00  1.6005141953E-02  4.0760561305E-05  4.1186520131E-01
  8.2519531250E+03  4.1009780498E-05  3.9267299297E+00  1.6086161067E-02  4.0905070617E-05  4.1244719863E-01
  8.2666015625E+03  4.1154753488E-05  3.9244767275E+00  1.6167444597E-02  4.1049829343E-05  4.1302868368E-01
  8.2812500000E+03  4.1299979409E-05  3.9222356867E+00  1.6248992931E-02  4.1194840930E-05  4.1360965729E-01
  8.2958984375E+03  4.1445459782E-05  3.9199998829E+00  1.6330806456E-02  4.1340106893E-05  4.1419012028E-01
  8.3105468750E+03  4.1591194602E-05  3.9177692946E+00  1.6412885561E-02  4.1485627227E-05  4.1477007349E-01
  8.3251953125E+03  4.1737183866E-05  3.9155439004E+00  1.6495230633E-02  4.1631401928E-05  4.1534951773E-01
  8.3398437500E+03  4.1883427568E-05  3.9133236792E+00  1.6577842059E-02  4.1777430990E-05  4.1592845384E-01
  8.3544921875E+03  4.2029925704E-05  3.9111086099E+00  1.6660720226E-02  4.1923714410E-05  4.1650688267E-01
  8.3691406250E+03  4.2176678270E-05  3.9088986715E+00  1.6743865521E-02  4.2070252181E-05  4.1708480504E-01
  8.3837890625E+03  4.2323685259E-05  3.9066938432E+00  1.6827278331E-02  4.2217044301E-05  4.1766222180E-01
  8.3984375000E+03  4.2470944146E-05  3.9045105155E+00  1.6910959043E-02  4.2364088256E-05  4.1823913380E-01
  8.4130859375E+03  4.2618455578E-05  3.9023442384E+00  1.6994908043E-02  4.2511384690E-05  4.1881554179E-01
  8.4277343750E+03  4.2766221399E-05  3.9001829286E+00  1.7079125718E-02  4.2658935435E-05  4.1939144618E-01
  8.4423828125E+03  4.2914241602E-05  3.8980265660E+00  1.7163612454E-02  4.2806740487E-05  4.1996684743E-01
  8.4570312500E+03  4.3062516185E-05  3.8958751309E+00  1.7248368638E-02  4.2954799842E-05  4.2054174601E-01
  8.4716796875E+03  4.3211045142E-05  3.8937286034E+00  1.7333394656E-02  4.3103113494E-05  4.2111614240E-01
  8.4863281250E+03  4.3359828469E-05  3.8915869639E+00  1.7418690893E-02  4.3251681439E-05  4.2169003708E-01
  8.5009765625E+03  4.3508866160E-05  3.8894501928E+00  1.7504257735E-02  4.3400503672E-05  4.2226343052E-01
  8.5156250000E+03  4.3658158213E-05  3.8873182708E+00  1.7590095568E-02  4.3549580189E-05  4.2283632323E-01
  8.5302734375E+03  4.3807704120E-05  3.8851976692E+00  1.7676204779E-02  4.3698910488E-05  4.2340871569E-01
  8.5449218750E+03  4.3957502759E-05  3.8831027476E+00  1.7762585751E-02  4.3848493452E-05  4.2398060839E-01
  8.5595703125E+03  4.4107555733E-05  3.8810125409E+00  1.7849238871E-02  4.3998330675E-05  4.2455200184E-01
  8.5742187500E+03  4.4257863039E-05  3.8789270305E+00  1.7936164523E-02  4.4148422153E-05  4.2512289655E-01
  8.5888671875E+03  4.4408424672E-05  3.8768461977E+00  1.8023363094E-02  4.4298767882E-05  4.2569329301E-01
  8.6035156250E+03  4.4559240627E-05  3.8747700243E+00  1.8110834967E-02  4.4449367856E-05  4.2626319175E-01
  8.6181640625E+03  4.4710310901E-05  3.8726984917E+00  1.8198580528E-02  4.4600222072E-05  4.2683259327E-01
  8.6328125000E+03  4.4861635487E-05  3.8706315819E+00  1.8286600161E-02  4.4751330524E-05  4.2740149811E-01
  8.6474609375E+03  4.5013214383E-05  3.8685692766E+00  1.8374894250E-02  4.4902693208E-05  4.2796990677E-01
  8.6621093750E+03  4.5165047584E-05  3.8665115579E+00  1.8463463182E-02  4.5054310121E-05  4.2853781980E-01
  8.6767578125E+03  4.5317135245E-05  3.8644780364E+00  1.8552307339E-02  4.5206181419E-05  4.2910523771E-01
  8.6914062500E+03  4.5469477257E-05  3.8624557339E+00  1.8641427105E-02  4.5358306992E-05  4.2967216105E-01
  8.7060546875E+03  4.5622073561E-05  3.8604378925E+00  1.8730822866E-02  4.5510686781E-05  4.3023859035E-01
  8.7207031250E+03  4.5774924153E-05  3.8584244950E+00  1.8820495005E-02  4.5663320780E-05  4.3080452615E-01
  8.7353515625E+03  4.5928029028E-05  3.8564155240E+00  1.8910443905E-02  4.5816208986E-05  4.3136996900E-01
  8.7500000000E+03  4.6081388182E-05  3.8544109624E+00  1.9000669951E-02  4.5969351394E-05  4.3193491944E-01
  8.7646484375E+03  4.6235001611E-05  3.8524107932E+00  1.9091173525E-02  4.6122748000E-05  4.3249937803E-01
  8.7792968750E+03  4.6388869309E-05  3.8504149995E+00  1.9181955013E-02  4.6276398799E-05  4.3306334533E-01
  8.7939453125E+03  4.6542991273E-05  3.8484235644E+00  1.9273014796E-02  4.6430303786E-05  4.3362682188E-01
  8.8085937500E+03  4.6697367753E-05  3.8464389507E+00  1.9364353258E-02  4.6584463213E-05  4.3418980825E-01
  8.8232421875E+03  4.6852000862E-05  3.8444815317E+00  1.9455970782E-02  4.6738879182E-05  4.3475230501E-01
  8.8378906250E+03  4.7006888236E-05  3.8425283533E+00  1.9547867751E-02  4.6893549340E-05  4.3531431272E-01
  8.8525390625E+03  4.7162029871E-05  3.8405793995E+00  1.9640044549E-02  4.7048473683E-05  4.3587583195E-01
  8.8671875000E+03  4.7317425762E-05  3.8386346539E+00  1.9732501556E-02  4.7203652204E-05  4.3643686364E-01
  8.8818359375E+03  4.7473075905E-05  3.8366941008E+00  1.9825239157E-02  4.7359084901E-05  4.3699740921E-01
  8.8964843750E+03  4.7628980296E-05  3.8347577240E+00  1.9918257734E-02  4.7514771769E-05  4.3755746890E-01
  8.9111328125E+03  4.7785138930E-05  3.8328255079E+00  2.0011557669E-02  4.7670712803E-05  4.3811704287E-01
  8.9257812500E+03  4.7941551804E-05  3.8308974366E+00  2.0105139344E-02  4.7826907999E-05  4.3867613128E-01
  8.9404296875E+03  4.8098218912E-05  3.8289734944E+00  2.0199003142E-02  4.7983357354E-05  4.3923473430E-01
  8.9550781250E+03  4.8255141733E-05  3.8270608301E+00  2.0293149444E-02  4.8140062338E-05  4.3979285210E-01
