#[MATERIAL DEFINITION FOR MC-GPU: interaction mean free path and sampling data from PENELOPE 2006]
#[MATERIAL NAME]
# BONE, COMPACT (ICRU)  (119)                                   
#[NOMINAL DENSITY (g/cm^3)]
#   1.85000000
#[NUMBER OF DATA VALUES]
#   8192
#[MEAN FREE PATHS (cm) (ie, average distance between interactions)]
#[Energy (eV)     | Rayleigh        | Compton         | Photoelectric   | TOTAL (+pair prod) (cm) | Rayleigh: max cumul prob F^2]
  5.0000000000E+03  7.5678405908E-01  4.8041544873E+00  4.0253972712E-03  4.0007646343E-03  2.6785187541E-01
  5.0146484375E+03  7.5894828662E-01  4.7972957248E+00  4.0575997743E-03  4.0326291085E-03  2.6859448191E-01
  5.0292968750E+03  7.6111236349E-01  4.7904667177E+00  4.0899638499E-03  4.0646514857E-03  2.6933595748E-01
  5.0439453125E+03  7.6327629016E-01  4.7836672509E+00  4.1224898272E-03  4.0968320656E-03  2.7007630779E-01
  5.0585937500E+03  7.6544006706E-01  4.7768971112E+00  4.1551780355E-03  4.1291711476E-03  2.7081553856E-01
  5.0732421875E+03  7.6760369465E-01  4.7701560879E+00  4.1880288033E-03  4.1616690303E-03  2.7155365545E-01
  5.0878906250E+03  7.6977313852E-01  4.7634820721E+00  4.2210424590E-03  4.1943262188E-03  2.7229066413E-01
  5.1025390625E+03  7.7195013403E-01  4.7568854113E+00  4.2542193308E-03  4.2271430780E-03  2.7302657029E-01
  5.1171875000E+03  7.7412701903E-01  4.7503167573E+00  4.2875597463E-03  4.2601196429E-03  2.7376137956E-01
  5.1318359375E+03  7.7630379385E-01  4.7437759114E+00  4.3210640330E-03  4.2932562104E-03  2.7449509761E-01
  5.1464843750E+03  7.7848045881E-01  4.7372626771E+00  4.3547325180E-03  4.3265530772E-03  2.7522773006E-01
  5.1611328125E+03  7.8065701423E-01  4.7307768598E+00  4.3885655282E-03  4.3600105392E-03  2.7595928256E-01
  5.1757812500E+03  7.8284391027E-01  4.7243839671E+00  4.4225633901E-03  4.3936292781E-03  2.7668976072E-01
  5.1904296875E+03  7.8503366731E-01  4.7180361605E+00  4.4567264298E-03  4.4274093218E-03  2.7741917015E-01
  5.2050781250E+03  7.8722335238E-01  4.7117147365E+00  4.4910549732E-03  4.4613508579E-03  2.7814751647E-01
  5.2197265625E+03  7.8941296569E-01  4.7054195118E+00  4.5255493459E-03  4.4954541807E-03  2.7887480526E-01
  5.2343750000E+03  7.9160250743E-01  4.6991503045E+00  4.5602098733E-03  4.5297195841E-03  2.7960104212E-01
  5.2490234375E+03  7.9379239174E-01  4.6929095091E+00  4.5950368801E-03  4.5641473776E-03  2.8032623265E-01
  5.2636718750E+03  7.9599492691E-01  4.6867731426E+00  4.6300306911E-03  4.5987383388E-03  2.8105038224E-01
  5.2783203125E+03  7.9819742699E-01  4.6806618200E+00  4.6651916308E-03  4.6334922713E-03  2.8177349598E-01
  5.2929687500E+03  8.0039989208E-01  4.6745753698E+00  4.7005200230E-03  4.6684094673E-03  2.8249557890E-01
  5.3076171875E+03  8.0260232227E-01  4.6685136225E+00  4.7360161916E-03  4.7034902184E-03  2.8321663605E-01
  5.3222656250E+03  8.0480471767E-01  4.6624764100E+00  4.7716804600E-03  4.7387348158E-03  2.8393667244E-01
  5.3369140625E+03  8.0700950701E-01  4.6564784521E+00  4.8075131514E-03  4.7741436510E-03  2.8465569310E-01
  5.3515625000E+03  8.0922471957E-01  4.6505684228E+00  4.8435145886E-03  4.8097173532E-03  2.8537370304E-01
  5.3662109375E+03  8.1143993264E-01  4.6446820187E+00  4.8796850943E-03  4.8454557849E-03  2.8609070727E-01
  5.3808593750E+03  8.1365514620E-01  4.6388190815E+00  4.9160249906E-03  4.8813592356E-03  2.8680671079E-01
  5.3955078125E+03  8.1587036025E-01  4.6329794539E+00  4.9525345995E-03  4.9174279943E-03  2.8752171857E-01
  5.4101562500E+03  8.1808557480E-01  4.6271629805E+00  4.9892142427E-03  4.9536623497E-03  2.8823573561E-01
  5.4248046875E+03  8.2030395208E-01  4.6213886255E+00  5.0260642417E-03  4.9900627290E-03  2.8894876688E-01
  5.4394531250E+03  8.2253180232E-01  4.6156940106E+00  5.0630849174E-03  5.0266297050E-03  2.8966081733E-01
  5.4541015625E+03  8.2475968720E-01  4.6100216996E+00  5.1002765907E-03  5.0633631532E-03  2.9037189194E-01
  5.4687500000E+03  8.2698760664E-01  4.6043715454E+00  5.1376395821E-03  5.1002633606E-03  2.9108199565E-01
  5.4833984375E+03  8.2921556054E-01  4.5987434026E+00  5.1752224778E-03  5.1373781762E-03  2.9179113340E-01
  5.4980468750E+03  8.3144354881E-01  4.5931371268E+00  5.2130445806E-03  5.1747265800E-03  2.9249931013E-01
  5.5126953125E+03  8.3367423889E-01  4.5875684939E+00  5.2510402259E-03  5.2122439545E-03  2.9320653076E-01
  5.5273437500E+03  8.3591467637E-01  4.5820790596E+00  5.2892097382E-03  5.2499309258E-03  2.9391280022E-01
  5.5419921875E+03  8.3815518126E-01  4.5766106966E+00  5.3275534414E-03  5.2877873347E-03  2.9461812340E-01
  5.5566406250E+03  8.4039575338E-01  4.5711632686E+00  5.3660716594E-03  5.3258134702E-03  2.9532250522E-01
  5.5712890625E+03  8.4263639255E-01  4.5657366406E+00  5.4047647157E-03  5.3640096207E-03  2.9602595058E-01
  5.5859375000E+03  8.4487709861E-01  4.5603306788E+00  5.4436329337E-03  5.4023760742E-03  2.9672846435E-01
  5.6005859375E+03  8.4711887029E-01  4.5549511386E+00  5.4826766361E-03  5.4409131679E-03  2.9743005142E-01
  5.6152343750E+03  8.4937183428E-01  4.5496572852E+00  5.5218961457E-03  5.4796216981E-03  2.9813071658E-01
  5.6298828125E+03  8.5162489711E-01  4.5443833525E+00  5.5612917850E-03  5.5185014058E-03  2.9883046421E-01
  5.6445312500E+03  8.5387805852E-01  4.5391292139E+00  5.6008638759E-03  5.5575525774E-03  2.9952929856E-01
  5.6591796875E+03  8.5613131827E-01  4.5338947442E+00  5.6406127404E-03  5.5967754989E-03  3.0022722389E-01
  5.6738281250E+03  8.5838467610E-01  4.5286798190E+00  5.6805386999E-03  5.6361704555E-03  3.0092424445E-01
  5.6884765625E+03  8.6063813176E-01  4.5234843152E+00  5.7206420758E-03  5.6757377324E-03  3.0162036448E-01
  5.7031250000E+03  8.6290176402E-01  4.5183666130E+00  5.7609231891E-03  5.7154781499E-03  3.0231558821E-01
  5.7177734375E+03  8.6516731288E-01  4.5132781715E+00  5.8013823605E-03  5.7553915639E-03  3.0300991988E-01
  5.7324218750E+03  8.6743299041E-01  4.5082084580E+00  5.8420199105E-03  5.7954781640E-03  3.0370336371E-01
  5.7470703125E+03  8.6969879626E-01  4.5031573559E+00  5.8828361591E-03  5.8357382337E-03  3.0439592391E-01
  5.7617187500E+03  8.7196473014E-01  4.4981247497E+00  5.9238314264E-03  5.8761720558E-03  3.0508760472E-01
  5.7763671875E+03  8.7423079171E-01  4.4931105249E+00  5.9650060320E-03  5.9167799128E-03  3.0577841032E-01
  5.7910156250E+03  8.7650295291E-01  4.4881488590E+00  6.0063602951E-03  5.9575624230E-03  3.0646834494E-01
  5.8056640625E+03  8.7878090647E-01  4.4832375044E+00  6.0478945350E-03  5.9985198598E-03  3.0715741276E-01
  5.8203125000E+03  8.8105901751E-01  4.4783438803E+00  6.0896090704E-03  6.0396521901E-03  3.0784561798E-01
  5.8349609375E+03  8.8333728566E-01  4.4734678784E+00  6.1315042200E-03  6.0809596948E-03  3.0853296478E-01
  5.8496093750E+03  8.8561571054E-01  4.4686093911E+00  6.1735803019E-03  6.1224426541E-03  3.0921945735E-01
  5.8642578125E+03  8.8789429175E-01  4.4637683121E+00  6.2158376341E-03  6.1641013481E-03  3.0990509986E-01
  5.8789062500E+03  8.9017389164E-01  4.4589494390E+00  6.2582765346E-03  6.2059361077E-03  3.1058989648E-01
  5.8935546875E+03  8.9246415944E-01  4.4542072613E+00  6.3008973207E-03  6.2479477938E-03  3.1127385137E-01
  5.9082031250E+03  8.9475461238E-01  4.4494818804E+00  6.3437003096E-03  6.2901360658E-03  3.1195696871E-01
  5.9228515625E+03  8.9704525000E-01  4.4447731953E+00  6.3866858184E-03  6.3325012023E-03  3.1263925263E-01
  5.9375000000E+03  8.9933607188E-01  4.4400811059E+00  6.4298541637E-03  6.3750434809E-03  3.1332070729E-01
  5.9521484375E+03  9.0162707756E-01  4.4354055130E+00  6.4732056619E-03  6.4177631792E-03  3.1400133677E-01
  5.9667968750E+03  9.0391826661E-01  4.4307463182E+00  6.5167406293E-03  6.4606605742E-03  3.1468114473E-01
  5.9814453125E+03  9.0621556549E-01  4.4261366451E+00  6.5604593817E-03  6.5037363194E-03  3.1536013472E-01
  5.9960937500E+03  9.0851826860E-01  4.4215721034E+00  6.6043622349E-03  6.5469906559E-03  3.1603831026E-01
  6.0107421875E+03  9.1082118286E-01  4.4170233893E+00  6.6485516120E-03  6.5905238652E-03  3.1671567487E-01
  6.0253906250E+03  9.1312430776E-01  4.4124904096E+00  6.6929640788E-03  6.6342735618E-03  3.1739223209E-01
  6.0400390625E+03  9.1542764282E-01  4.4079730717E+00  6.7375630140E-03  6.6782037228E-03  3.1806798543E-01
  6.0546875000E+03  9.1773118755E-01  4.4034712841E+00  6.7823487375E-03  6.7223146275E-03  3.1874293842E-01
  6.0693359375E+03  9.2003494145E-01  4.3989849557E+00  6.8273215689E-03  6.7666065547E-03  3.1941709456E-01
  6.0839843750E+03  9.2234859027E-01  4.3945670996E+00  6.8724818278E-03  6.8110804389E-03  3.2009045737E-01
  6.0986328125E+03  9.2466376090E-01  4.3901713276E+00  6.9178298332E-03  6.8557360033E-03  3.2076303036E-01
  6.1132812500E+03  9.2697916770E-01  4.3857904823E+00  6.9633659042E-03  6.9005734395E-03  3.2143481703E-01
  6.1279296875E+03  9.2929481013E-01  4.3814244776E+00  7.0090903594E-03  6.9455930248E-03  3.2210582089E-01
  6.1425781250E+03  9.3161068764E-01  4.3770732279E+00  7.0550035171E-03  6.9907950360E-03  3.2277604544E-01
  6.1572265625E+03  9.3392679970E-01  4.3727366482E+00  7.1011056957E-03  7.0361797495E-03  3.2344549417E-01
  6.1718750000E+03  9.3624449465E-01  4.3684218801E+00  7.1473972130E-03  7.0817475376E-03  3.2411417058E-01
  6.1865234375E+03  9.3857193872E-01  4.3641723608E+00  7.1938783866E-03  7.1274992654E-03  3.2478207815E-01
  6.2011718750E+03  9.4089964374E-01  4.3599370108E+00  7.2405495341E-03  7.1734345377E-03  3.2544922038E-01
  6.2158203125E+03  9.4322760912E-01  4.3557157496E+00  7.2874109724E-03  7.2195536293E-03  3.2611560074E-01
  6.2304687500E+03  9.4555583429E-01  4.3515084973E+00  7.3344630187E-03  7.2658568146E-03  3.2678122273E-01
  6.2451171875E+03  9.4788431864E-01  4.3473151746E+00  7.3821177539E-03  7.3127484299E-03  3.2744608981E-01
  6.2597656250E+03  9.5021306162E-01  4.3431357028E+00  7.4302010388E-03  7.3600574659E-03  3.2811020546E-01
  6.2744140625E+03  9.5254480872E-01  4.3389843307E+00  7.4784830325E-03  7.4075585296E-03  3.2877357387E-01
  6.2890625000E+03  9.5488482276E-01  4.3348882016E+00  7.5269640832E-03  7.4552523306E-03  3.2943619962E-01
  6.3037109375E+03  9.5722512119E-01  4.3308054555E+00  7.5756445394E-03  7.5031385720E-03  3.3009808540E-01
  6.3183593750E+03  9.5956570340E-01  4.3267360176E+00  7.6245247488E-03  7.5512175555E-03  3.3075923386E-01
  6.3330078125E+03  9.6190656875E-01  4.3226798140E+00  7.6736050594E-03  7.5994895820E-03  3.3141964763E-01
  6.3476562500E+03  9.6424771662E-01  4.3186367711E+00  7.7228858187E-03  7.6479549526E-03  3.3207932935E-01
  6.3623046875E+03  9.6658914641E-01  4.3146068160E+00  7.7723673739E-03  7.6966139673E-03  3.3273828167E-01
  6.3769531250E+03  9.6893378110E-01  4.3106047369E+00  7.8220500723E-03  7.7454671609E-03  3.3339650723E-01
  6.3916015625E+03  9.7128641694E-01  4.3066546140E+00  7.8719342606E-03  7.7945152274E-03  3.3405400866E-01
  6.4062500000E+03  9.7363935987E-01  4.3027171411E+00  7.9220202855E-03  7.8437578533E-03  3.3471078861E-01
  6.4208984375E+03  9.7599260922E-01  4.2987922489E+00  7.9723084935E-03  7.8931953373E-03  3.3536684973E-01
  6.4355468750E+03  9.7834616433E-01  4.2948798687E+00  8.0227992308E-03  7.9428279777E-03  3.3602219466E-01
  6.4501953125E+03  9.8070002454E-01  4.2909799322E+00  8.0734928434E-03  7.9926560725E-03  3.3667682605E-01
  6.4648437500E+03  9.8305418920E-01  4.2870923717E+00  8.1243896771E-03  8.0426799190E-03  3.3733074653E-01
  6.4794921875E+03  9.8541055733E-01  4.2832265307E+00  8.1754900774E-03  8.0928999761E-03  3.3798395876E-01
  6.4941406250E+03  9.8777585915E-01  4.2794154837E+00  8.2270692277E-03  8.1435864109E-03  3.3863646538E-01
  6.5087890625E+03  9.9014149001E-01  4.2756164029E+00  8.2788813039E-03  8.1944975427E-03  3.3928826904E-01
  6.5234375000E+03  9.9250744922E-01  4.2718292238E+00  8.3309012098E-03  8.2456087369E-03  3.3993937237E-01
  6.5380859375E+03  9.9487373607E-01  4.2680538827E+00  8.3831293043E-03  8.2969203016E-03  3.4058977804E-01
  6.5527343750E+03  9.9724034989E-01  4.2642903159E+00  8.4355659463E-03  8.3484325451E-03  3.4123948868E-01
  6.5673828125E+03  9.9960728999E-01  4.2605384608E+00  8.4882114942E-03  8.4001457746E-03  3.4188850694E-01
  6.5820312500E+03  1.0019745557E+00  4.2567982548E+00  8.5410663065E-03  8.4520602975E-03  3.4253683547E-01
  6.5966796875E+03  1.0043522538E+00  4.2531182922E+00  8.5941307413E-03  8.5041773394E-03  3.4318447692E-01
  6.6113281250E+03  1.0067306087E+00  4.2494511370E+00  8.6474051566E-03  8.5564963332E-03  3.4383143393E-01
  6.6259765625E+03  1.0091093132E+00  4.2457952494E+00  8.7008899101E-03  8.6090175572E-03  3.4447770914E-01
  6.6406250000E+03  1.0114883665E+00  4.2421505700E+00  8.7545853593E-03  8.6617413169E-03  3.4512330520E-01
  6.6552734375E+03  1.0138677679E+00  4.2385170399E+00  8.8084918618E-03  8.7146679175E-03  3.4576822477E-01
  6.6699218750E+03  1.0162475168E+00  4.2348946004E+00  8.8626097745E-03  8.7677976637E-03  3.4641247048E-01
  6.6845703125E+03  1.0186276124E+00  4.2312831935E+00  8.9169394544E-03  8.8211308597E-03  3.4705604498E-01
  6.6992187500E+03  1.0210146751E+00  4.2277138458E+00  8.9714812583E-03  8.8746684467E-03  3.4769895091E-01
  6.7138671875E+03  1.0234057831E+00  4.2241725331E+00  9.0262355428E-03  8.9284104601E-03  3.4834119093E-01
  6.7285156250E+03  1.0257972612E+00  4.2206418951E+00  9.0812026642E-03  8.9823568524E-03  3.4898276767E-01
  6.7431640625E+03  1.0281891086E+00  4.2171218766E+00  9.1363829786E-03  9.0365079262E-03  3.4962368378E-01
  6.7578125000E+03  1.0305813247E+00  4.2136124226E+00  9.1917768420E-03  9.0908639839E-03  3.5026394190E-01
  6.7724609375E+03  1.0329739087E+00  4.2101134786E+00  9.2473846101E-03  9.1454253275E-03  3.5090354468E-01
  6.7871093750E+03  1.0353668599E+00  4.2066249906E+00  9.3032066386E-03  9.2001922583E-03  3.5154249475E-01
  6.8017578125E+03  1.0377621700E+00  4.2031560297E+00  9.3592432827E-03  9.2551652801E-03  3.5218079477E-01
  6.8164062500E+03  1.0401660532E+00  4.1997348308E+00  9.4154948977E-03  9.3103453357E-03  3.5281844737E-01
  6.8310546875E+03  1.0425703265E+00  4.1963237520E+00  9.4719618386E-03  9.3657318996E-03  3.5345545520E-01
  6.8457031250E+03  1.0449749891E+00  4.1929227416E+00  9.5286444600E-03  9.4213252718E-03  3.5409182089E-01
  6.8603515625E+03  1.0473800402E+00  4.1895317486E+00  9.5855431166E-03  9.4771257517E-03  3.5472754709E-01
  6.8750000000E+03  1.0497854790E+00  4.1861507220E+00  9.6426581629E-03  9.5331336384E-03  3.5536263589E-01
  6.8896484375E+03  1.0521913048E+00  4.1827796115E+00  9.6999899529E-03  9.5893492306E-03  3.5599708877E-01
  6.9042968750E+03  1.0545975169E+00  4.1794183671E+00  9.7575388407E-03  9.6457728266E-03  3.5663090747E-01
  6.9189453125E+03  1.0570104353E+00  4.1760950982E+00  9.8153051800E-03  9.7024054085E-03  3.5726409373E-01
  6.9335937500E+03  1.0594275191E+00  4.1727982136E+00  9.8732893247E-03  9.7592470127E-03  3.5789664931E-01
  6.9482421875E+03  1.0618450113E+00  4.1695108814E+00  9.9314916279E-03  9.8162975327E-03  3.5852857595E-01
  6.9628906250E+03  1.0642629114E+00  4.1662330539E+00  9.9899124431E-03  9.8735572651E-03  3.5915987543E-01
  6.9775390625E+03  1.0666812184E+00  4.1629646838E+00  1.0048552123E-02  9.9310265063E-03  3.5979054948E-01
  6.9921875000E+03  1.0690999316E+00  4.1597057239E+00  1.0107411021E-02  9.9887055520E-03  3.6042059988E-01
  7.0068359375E+03  1.0715190503E+00  4.1564561276E+00  1.0166622878E-02  1.0046724959E-02  3.6105002838E-01
  7.0214843750E+03  1.0739385735E+00  4.1532158484E+00  1.0226209023E-02  1.0105105465E-02  3.6167883677E-01
  7.0361328125E+03  1.0763678578E+00  4.1500252721E+00  1.0286018072E-02  1.0163700249E-02  3.6230702679E-01
  7.0507812500E+03  1.0787982198E+00  4.1468465837E+00  1.0346050386E-02  1.0222508629E-02  3.6293460023E-01
  7.0654296875E+03  1.0812290084E+00  4.1436769195E+00  1.0406306326E-02  1.0281530835E-02  3.6356155886E-01
  7.0800781250E+03  1.0836602226E+00  4.1405162352E+00  1.0466786254E-02  1.0340767167E-02  3.6418790446E-01
  7.0947265625E+03  1.0860918617E+00  4.1373644870E+00  1.0527490530E-02  1.0400217927E-02  3.6481363880E-01
  7.1093750000E+03  1.0885239250E+00  4.1342216311E+00  1.0588419516E-02  1.0459883416E-02  3.6543876367E-01
  7.1240234375E+03  1.0909564115E+00  4.1310876243E+00  1.0649573571E-02  1.0519763934E-02  3.6606328084E-01
  7.1386718750E+03  1.0933904941E+00  4.1279673218E+00  1.0710953056E-02  1.0579859922E-02  3.6668719211E-01
  7.1533203125E+03  1.0958338315E+00  4.1248925129E+00  1.0772558332E-02  1.0640172619E-02  3.6731049926E-01
  7.1679687500E+03  1.0982776138E+00  4.1218262773E+00  1.0834389758E-02  1.0700701265E-02  3.6793320408E-01
  7.1826171875E+03  1.1007218402E+00  4.1187685739E+00  1.0896447694E-02  1.0761446159E-02  3.6855530836E-01
  7.1972656250E+03  1.1031665099E+00  4.1157193614E+00  1.0958732500E-02  1.0822407599E-02  3.6917681390E-01
  7.2119140625E+03  1.1056116220E+00  4.1126785991E+00  1.1021244535E-02  1.0883585883E-02  3.6979772249E-01
  7.2265625000E+03  1.1080571758E+00  4.1096462465E+00  1.1083984158E-02  1.0944981310E-02  3.7041803592E-01
  7.2412109375E+03  1.1105031704E+00  4.1066222634E+00  1.1146951730E-02  1.1006594175E-02  3.7103775600E-01
  7.2558593750E+03  1.1129513295E+00  4.1036135359E+00  1.1210147607E-02  1.1068424997E-02  3.7165688453E-01
  7.2705078125E+03  1.1154082163E+00  4.1006462504E+00  1.1273572151E-02  1.1130474924E-02  3.7227542330E-01
  7.2851562500E+03  1.1178655654E+00  4.0976870765E+00  1.1337225718E-02  1.1192743201E-02  3.7289337413E-01
  7.2998046875E+03  1.1203233758E+00  4.0947359757E+00  1.1401108667E-02  1.1255230124E-02  3.7351073881E-01
  7.3144531250E+03  1.1227816468E+00  4.0917929099E+00  1.1465221357E-02  1.1317935987E-02  3.7412751916E-01
  7.3291015625E+03  1.1252403774E+00  4.0888578411E+00  1.1529564145E-02  1.1380861086E-02  3.7474371698E-01
  7.3437500000E+03  1.1276995670E+00  4.0859307318E+00  1.1594137389E-02  1.1444005716E-02  3.7535933408E-01
  7.3583984375E+03  1.1301592145E+00  4.0830115444E+00  1.1658941448E-02  1.1507370168E-02  3.7597437227E-01
  7.3730468750E+03  1.1326202990E+00  4.0801040288E+00  1.1723976678E-02  1.1570954871E-02  3.7658883337E-01
  7.3876953125E+03  1.1350908771E+00  4.0772391707E+00  1.1789243437E-02  1.1634761219E-02  3.7720271919E-01
  7.4023437500E+03  1.1375619345E+00  4.0743819930E+00  1.1854742082E-02  1.1698788293E-02  3.7781603155E-01
  7.4169921875E+03  1.1400334702E+00  4.0715324600E+00  1.1920472970E-02  1.1763036385E-02  3.7842877218E-01
  7.4316406250E+03  1.1425054834E+00  4.0686905363E+00  1.1986436458E-02  1.1827505788E-02  3.7904094216E-01
  7.4462890625E+03  1.1449779733E+00  4.0658561866E+00  1.2052632902E-02  1.1892196792E-02  3.7965254256E-01
  7.4609375000E+03  1.1474509389E+00  4.0630293758E+00  1.2119062659E-02  1.1957109689E-02  3.8026357453E-01
  7.4755859375E+03  1.1499243795E+00  4.0602100692E+00  1.2185726085E-02  1.2022244769E-02  3.8087403921E-01
  7.4902343750E+03  1.1523982942E+00  4.0573982322E+00  1.2252623536E-02  1.2087602323E-02  3.8148393776E-01
  7.5048828125E+03  1.1548816172E+00  4.0546269773E+00  1.2319755368E-02  1.2153183928E-02  3.8209327134E-01
  7.5195312500E+03  1.1573665198E+00  4.0518670314E+00  1.2387121937E-02  1.2218988764E-02  3.8270204111E-01
  7.5341796875E+03  1.1598519174E+00  4.0491143300E+00  1.2454723598E-02  1.2285016967E-02  3.8331024822E-01
  7.5488281250E+03  1.1623378091E+00  4.0463688401E+00  1.2522560708E-02  1.2351268824E-02  3.8391789386E-01
  7.5634765625E+03  1.1648241942E+00  4.0436305288E+00  1.2590633620E-02  1.2417744623E-02  3.8452497920E-01
  7.5781250000E+03  1.1673110717E+00  4.0408993634E+00  1.2658942691E-02  1.2484444654E-02  3.8513150540E-01
  7.5927734375E+03  1.1697984407E+00  4.0381753116E+00  1.2727488274E-02  1.2551369202E-02  3.8573747364E-01
  7.6074218750E+03  1.1722863006E+00  4.0354583412E+00  1.2796270726E-02  1.2618518555E-02  3.8634288512E-01
  7.6220703125E+03  1.1747801802E+00  4.0327681678E+00  1.2865290399E-02  1.2685893840E-02  3.8694774102E-01
  7.6367187500E+03  1.1772790602E+00  4.0301009678E+00  1.2934547650E-02  1.2753495204E-02  3.8755204252E-01
  7.6513671875E+03  1.1797784517E+00  4.0274406379E+00  1.3004042831E-02  1.2821322257E-02  3.8815579082E-01
  7.6660156250E+03  1.1822783538E+00  4.0247871473E+00  1.3073776297E-02  1.2889375284E-02  3.8875898710E-01
  7.6806640625E+03  1.1847787655E+00  4.0221404656E+00  1.3143748402E-02  1.2957654569E-02  3.8936163259E-01
  7.6953125000E+03  1.1872796861E+00  4.0195005623E+00  1.3213959500E-02  1.3026160398E-02  3.8996372846E-01
  7.7099609375E+03  1.1897811147E+00  4.0168674071E+00  1.3284409944E-02  1.3094893054E-02  3.9056527593E-01
  7.7246093750E+03  1.1922830503E+00  4.0142409700E+00  1.3355100087E-02  1.3163852822E-02  3.9116627620E-01
  7.7392578125E+03  1.1947862511E+00  4.0116238300E+00  1.3426030283E-02  1.3233040106E-02  3.9176673049E-01
  7.7539062500E+03  1.1972992365E+00  4.0090451474E+00  1.3497200884E-02  1.3302456564E-02  3.9236664001E-01
  7.7685546875E+03  1.1998127496E+00  4.0064729846E+00  1.3568612244E-02  1.3372101008E-02  3.9296600597E-01
  7.7832031250E+03  1.2023267893E+00  4.0039073129E+00  1.3640264716E-02  1.3441973720E-02  3.9356482959E-01
  7.7978515625E+03  1.2048413549E+00  4.0013481038E+00  1.3712158651E-02  1.3512074982E-02  3.9416311209E-01
  7.8125000000E+03  1.2073564455E+00  3.9987953289E+00  1.3784294403E-02  1.3582405075E-02  3.9476085471E-01
  7.8271484375E+03  1.2098720602E+00  3.9962489601E+00  1.3856672323E-02  1.3652964280E-02  3.9535805865E-01
  7.8417968750E+03  1.2123881980E+00  3.9937089692E+00  1.3929292764E-02  1.3723752878E-02  3.9595472516E-01
  7.8564453125E+03  1.2149048582E+00  3.9911753285E+00  1.4002156077E-02  1.3794771148E-02  3.9655085547E-01
  7.8710937500E+03  1.2174266724E+00  3.9886633008E+00  1.4075262614E-02  1.3866020155E-02  3.9714645080E-01
  7.8857421875E+03  1.2199544304E+00  3.9861753378E+00  1.4148612726E-02  1.3937500331E-02  3.9774151240E-01
  7.9003906250E+03  1.2224827310E+00  3.9836935398E+00  1.4222206766E-02  1.4009211045E-02  3.9833604150E-01
  7.9150390625E+03  1.2250115733E+00  3.9812178799E+00  1.4296045084E-02  1.4081152573E-02  3.9893003934E-01
  7.9296875000E+03  1.2275409565E+00  3.9787483318E+00  1.4370128032E-02  1.4153325196E-02  3.9952350711E-01
  7.9443359375E+03  1.2300708797E+00  3.9762848690E+00  1.4444455960E-02  1.4225729190E-02  4.0011644548E-01
  7.9589843750E+03  1.2326013419E+00  3.9738274655E+00  1.4519029219E-02  1.4298364834E-02  4.0070885517E-01
  7.9736328125E+03  1.2351323424E+00  3.9713760952E+00  1.4593848159E-02  1.4371232402E-02  4.0130073692E-01
  7.9882812500E+03  1.2376638802E+00  3.9689307322E+00  1.4668913132E-02  1.4444332173E-02  4.0189209147E-01
  8.0029296875E+03  1.2402030668E+00  3.9665138709E+00  1.4744479800E-02  1.4517913224E-02  4.0248291957E-01
  8.0175781250E+03  1.2427457595E+00  3.9641122274E+00  1.4821321101E-02  1.4592723965E-02  4.0307322198E-01
  8.0322265625E+03  1.2452890096E+00  3.9617164179E+00  1.4898420596E-02  1.4667778245E-02  4.0366299947E-01
  8.0468750000E+03  1.2478328163E+00  3.9593264177E+00  1.4975778674E-02  1.4743076373E-02  4.0425225278E-01
  8.0615234375E+03  1.2503771786E+00  3.9569422021E+00  1.5053395725E-02  1.4818618659E-02  4.0484098270E-01
  8.0761718750E+03  1.2529220958E+00  3.9545637468E+00  1.5131272139E-02  1.4894405411E-02  4.0542918999E-01
  8.0908203125E+03  1.2554675668E+00  3.9521910273E+00  1.5209408306E-02  1.4970436935E-02  4.0601687544E-01
  8.1054687500E+03  1.2580135908E+00  3.9498240195E+00  1.5287804614E-02  1.5046713540E-02  4.0660403981E-01
  8.1201171875E+03  1.2605601670E+00  3.9474626994E+00  1.5366461453E-02  1.5123235533E-02  4.0719068389E-01
  8.1347656250E+03  1.2631155048E+00  3.9451318699E+00  1.5445379213E-02  1.5200004778E-02  4.0777680847E-01
  8.1494140625E+03  1.2656733485E+00  3.9428124488E+00  1.5524558281E-02  1.5277020416E-02  4.0836241433E-01
  8.1640625000E+03  1.2682317644E+00  3.9404985530E+00  1.5603999048E-02  1.5354282391E-02  4.0894750228E-01
  8.1787109375E+03  1.2707907516E+00  3.9381901595E+00  1.5683701902E-02  1.5431791007E-02  4.0953207311E-01
  8.1933593750E+03  1.2733503092E+00  3.9358872454E+00  1.5763667231E-02  1.5509546570E-02  4.1011612763E-01
  8.2080078125E+03  1.2759104363E+00  3.9335897879E+00  1.5843895423E-02  1.5587549383E-02  4.1069966662E-01
  8.2226562500E+03  1.2784711321E+00  3.9312977645E+00  1.5924386868E-02  1.5665799751E-02  4.1128269091E-01
  8.2373046875E+03  1.2810323956E+00  3.9290111525E+00  1.6005141953E-02  1.5744297978E-02  4.1186520131E-01
  8.2519531250E+03  1.2835942259E+00  3.9267299297E+00  1.6086161067E-02  1.5823044366E-02  4.1244719863E-01
  8.2666015625E+03  1.2861644765E+00  3.9244767275E+00  1.6167444597E-02  1.5902040791E-02  4.1302868368E-01
  8.2812500000E+03  1.2887377020E+00  3.9222356867E+00  1.6248992931E-02  1.5981286489E-02  4.1360965729E-01
  8.2958984375E+03  1.2913115145E+00  3.9199998829E+00  1.6330806456E-02  1.6060781287E-02  4.1419012028E-01
  8.3105468750E+03  1.2938859130E+00  3.9177692946E+00  1.6412885561E-02  1.6140525487E-02  4.1477007349E-01
  8.3251953125E+03  1.2964608967E+00  3.9155439004E+00  1.6495230633E-02  1.6220519389E-02  4.1534951773E-01
  8.3398437500E+03  1.2990364645E+00  3.9133236792E+00  1.6577842059E-02  1.6300763295E-02  4.1592845384E-01
  8.3544921875E+03  1.3016126157E+00  3.9111086099E+00  1.6660720226E-02  1.6381257505E-02  4.1650688267E-01
  8.3691406250E+03  1.3041893493E+00  3.9088986715E+00  1.6743865521E-02  1.6462002319E-02  4.1708480504E-01
  8.3837890625E+03  1.3067666645E+00  3.9066938432E+00  1.6827278331E-02  1.6542998035E-02  4.1766222180E-01
  8.3984375000E+03  1.3093505247E+00  3.9045105155E+00  1.6910959043E-02  1.6624246212E-02  4.1823913380E-01
  8.4130859375E+03  1.3119393605E+00  3.9023442384E+00  1.6994908043E-02  1.6705746839E-02  4.1881554179E-01
  8.4277343750E+03  1.3145287980E+00  3.9001829286E+00  1.7079125718E-02  1.6787499298E-02  4.1939144618E-01
  8.4423828125E+03  1.3171188362E+00  3.8980265660E+00  1.7163612454E-02  1.6869503886E-02  4.1996684743E-01
  8.4570312500E+03  1.3197094742E+00  3.8958751309E+00  1.7248368638E-02  1.6951760901E-02  4.2054174601E-01
  8.4716796875E+03  1.3223007112E+00  3.8937286034E+00  1.7333394656E-02  1.7034270640E-02  4.2111614240E-01
  8.4863281250E+03  1.3248925462E+00  3.8915869639E+00  1.7418690893E-02  1.7117033398E-02  4.2169003708E-01
  8.5009765625E+03  1.3274849783E+00  3.8894501928E+00  1.7504257735E-02  1.7200049472E-02  4.2226343052E-01
  8.5156250000E+03  1.3300780066E+00  3.8873182708E+00  1.7590095568E-02  1.7283319158E-02  4.2283632323E-01
  8.5302734375E+03  1.3326741027E+00  3.8851976692E+00  1.7676204779E-02  1.7366843300E-02  4.2340871569E-01
  8.5449218750E+03  1.3352787749E+00  3.8831027476E+00  1.7762585751E-02  1.7450623436E-02  4.2398060839E-01
  8.5595703125E+03  1.3378840633E+00  3.8810125409E+00  1.7849238871E-02  1.7534658102E-02  4.2455200184E-01
  8.5742187500E+03  1.3404899673E+00  3.8789270305E+00  1.7936164523E-02  1.7618947591E-02  4.2512289655E-01
  8.5888671875E+03  1.3430964857E+00  3.8768461977E+00  1.8023363094E-02  1.7703492199E-02  4.2569329301E-01
  8.6035156250E+03  1.3457036178E+00  3.8747700243E+00  1.8110834967E-02  1.7788292217E-02  4.2626319175E-01
  8.6181640625E+03  1.3483113626E+00  3.8726984917E+00  1.8198580528E-02  1.7873347938E-02  4.2683259327E-01
  8.6328125000E+03  1.3509197192E+00  3.8706315819E+00  1.8286600161E-02  1.7958659655E-02  4.2740149811E-01
  8.6474609375E+03  1.3535286868E+00  3.8685692766E+00  1.8374894250E-02  1.8044227660E-02  4.2796990677E-01
  8.6621093750E+03  1.3561382644E+00  3.8665115579E+00  1.8463463182E-02  1.8130052243E-02  4.2853781980E-01
  8.6767578125E+03  1.3587563058E+00  3.8644780364E+00  1.8552307339E-02  1.8216135543E-02  4.2910523771E-01
  8.6914062500E+03  1.3613776690E+00  3.8624557339E+00  1.8641427105E-02  1.8302476668E-02  4.2967216105E-01
  8.7060546875E+03  1.3639996623E+00  3.8604378925E+00  1.8730822866E-02  1.8389075279E-02  4.3023859035E-01
  8.7207031250E+03  1.3666222849E+00  3.8584244950E+00  1.8820495005E-02  1.8475931665E-02  4.3080452615E-01
  8.7353515625E+03  1.3692455358E+00  3.8564155240E+00  1.8910443905E-02  1.8563046117E-02  4.3136996900E-01
  8.7500000000E+03  1.3718694141E+00  3.8544109624E+00  1.9000669951E-02  1.8650418923E-02  4.3193491944E-01
  8.7646484375E+03  1.3744939190E+00  3.8524107932E+00  1.9091173525E-02  1.8738050370E-02  4.3249937803E-01
  8.7792968750E+03  1.3771190495E+00  3.8504149995E+00  1.9181955013E-02  1.8825940748E-02  4.3306334533E-01
  8.7939453125E+03  1.3797448047E+00  3.8484235644E+00  1.9273014796E-02  1.8914090343E-02  4.3362682188E-01
  8.8085937500E+03  1.3823722235E+00  3.8464389507E+00  1.9364353258E-02  1.9002499700E-02  4.3418980825E-01
  8.8232421875E+03  1.3850098828E+00  3.8444815317E+00  1.9455970782E-02  1.9091171242E-02  4.3475230501E-01
  8.8378906250E+03  1.3876481869E+00  3.8425283533E+00  1.9547867751E-02  1.9180102900E-02  4.3531431272E-01
  8.8525390625E+03  1.3902871350E+00  3.8405793995E+00  1.9640044549E-02  1.9269294958E-02  4.3587583195E-01
  8.8671875000E+03  1.3929267262E+00  3.8386346539E+00  1.9732501556E-02  1.9358747702E-02  4.3643686364E-01
  8.8818359375E+03  1.3955669595E+00  3.8366941008E+00  1.9825239157E-02  1.9448461418E-02  4.3699740921E-01
  8.8964843750E+03  1.3982078341E+00  3.8347577240E+00  1.9918257734E-02  1.9538436389E-02  4.3755746890E-01
  8.9111328125E+03  1.4008493490E+00  3.8328255079E+00  2.0011557669E-02  1.9628672900E-02  4.3811704287E-01
  8.9257812500E+03  1.4034915033E+00  3.8308974366E+00  2.0105139344E-02  1.9719171235E-02  4.3867613128E-01
  8.9404296875E+03  1.4061342962E+00  3.8289734944E+00  2.0199003142E-02  1.9809931676E-02  4.3923473430E-01
  8.9550781250E+03  1.4087808822E+00  3.8270608301E+00  2.0293149444E-02  1.9900955329E-02  4.3979285210E-01
