#[MATERIAL DEFINITION FOR MC-GPU: interaction mean free path and sampling data from PENELOPE 2006]
#[MATERIAL NAME]
# caffeine                                                      
#[NOMINAL DENSITY (g/cm^3)]
#   1.23000000
#[NUMBER OF DATA VALUES]
#  25005
#[MEAN FREE PATHS (cm) (ie, average distance between interactions)]
#[Energy (eV)     | Rayleigh        | Compton         | Photoelectric   | TOTAL (+pair prod) (cm) | Rayleigh: max cumul prob F^2]
  5.0000000000E+03  1.5115351394E+00  6.5953718795E+00  3.1402537085E-02  3.0620592489E-02  1.3654221911E-01
  5.0057988402E+03  1.5137620221E+00  6.5924460810E+00  3.1514871782E-02  3.0728248302E-02  1.3663690780E-01
  5.0115976805E+03  1.5159896016E+00  6.5895249655E+00  3.1627477499E-02  3.0836152296E-02  1.3673142905E-01
  5.0173965207E+03  1.5182178775E+00  6.5866085201E+00  3.1740354578E-02  3.0944304723E-02  1.3682578299E-01
  5.0231953609E+03  1.5204468491E+00  6.5836967320E+00  3.1853503355E-02  3.1052705834E-02  1.3691997040E-01
  5.0289942012E+03  1.5226765158E+00  6.5807895884E+00  3.1966924171E-02  3.1161355881E-02  1.3701399236E-01
  5.0347930414E+03  1.5249068771E+00  6.5778870765E+00  3.2080617364E-02  3.1270255116E-02  1.3710784993E-01
  5.0405918816E+03  1.5271379324E+00  6.5749891836E+00  3.2194583273E-02  3.1379403789E-02  1.3720154415E-01
  5.0463907219E+03  1.5293696810E+00  6.5720958971E+00  3.2308822237E-02  3.1488802152E-02  1.3729507608E-01
  5.0521895621E+03  1.5316021224E+00  6.5692072044E+00  3.2423334596E-02  3.1598450455E-02  1.3738844674E-01
  5.0579884023E+03  1.5338352560E+00  6.5663230929E+00  3.2538120688E-02  3.1708348949E-02  1.3748165717E-01
  5.0637872426E+03  1.5360690813E+00  6.5634435501E+00  3.2653180853E-02  3.1818497884E-02  1.3757470838E-01
  5.0695860828E+03  1.5383035977E+00  6.5605685635E+00  3.2768515430E-02  3.1928897511E-02  1.3766760139E-01
  5.0753849230E+03  1.5405388045E+00  6.5576981208E+00  3.2884124757E-02  3.2039548079E-02  1.3776033721E-01
  5.0811837632E+03  1.5427747012E+00  6.5548322096E+00  3.3000009174E-02  3.2150449837E-02  1.3785291727E-01
  5.0869826035E+03  1.5450140169E+00  6.5519757501E+00  3.3116169021E-02  3.2261604346E-02  1.3794534362E-01
  5.0927814437E+03  1.5472701260E+00  6.5491528261E+00  3.3232604636E-02  3.2373018315E-02  1.3803761835E-01
  5.0985802839E+03  1.5495269566E+00  6.5463343288E+00  3.3349316360E-02  3.2484684315E-02  1.3812974350E-01
  5.1043791242E+03  1.5517845080E+00  6.5435202462E+00  3.3466304530E-02  3.2596602594E-02  1.3822172114E-01
  5.1101779644E+03  1.5540427797E+00  6.5407105663E+00  3.3583569487E-02  3.2708773403E-02  1.3831355328E-01
  5.1159768046E+03  1.5563017711E+00  6.5379052773E+00  3.3701111570E-02  3.2821196989E-02  1.3840524193E-01
  5.1217756449E+03  1.5585614815E+00  6.5351043674E+00  3.3818931119E-02  3.2933873601E-02  1.3849678909E-01
  5.1275744851E+03  1.5608219104E+00  6.5323078248E+00  3.3937028473E-02  3.3046803489E-02  1.3858819674E-01
  5.1333733253E+03  1.5630830572E+00  6.5295156377E+00  3.4055403971E-02  3.3159986901E-02  1.3867946683E-01
  5.1391721656E+03  1.5653449213E+00  6.5267277945E+00  3.4174057952E-02  3.3273424084E-02  1.3877060153E-01
  5.1449710058E+03  1.5676075022E+00  6.5239442835E+00  3.4292990758E-02  3.3387115286E-02  1.3886160374E-01
  5.1507698460E+03  1.5698707992E+00  6.5211650931E+00  3.4412202726E-02  3.3501060755E-02  1.3895247655E-01
  5.1565686863E+03  1.5721348118E+00  6.5183902117E+00  3.4531694197E-02  3.3615260739E-02  1.3904322301E-01
  5.1623675265E+03  1.5743995395E+00  6.5156196278E+00  3.4651465510E-02  3.3729715484E-02  1.3913384615E-01
  5.1681663667E+03  1.5766649815E+00  6.5128533301E+00  3.4771517005E-02  3.3844425239E-02  1.3922434896E-01
  5.1739652070E+03  1.5789315649E+00  6.5100921359E+00  3.4891849022E-02  3.3959390469E-02  1.3931473444E-01
  5.1797640472E+03  1.5812153465E+00  6.5073671087E+00  3.5012461900E-02  3.4074619733E-02  1.3940500554E-01
  5.1855628874E+03  1.5834998705E+00  6.5046462693E+00  3.5133355979E-02  3.4190104832E-02  1.3949516520E-01
  5.1913617277E+03  1.5857851364E+00  6.5019296065E+00  3.5254531599E-02  3.4305846014E-02  1.3958521635E-01
  5.1971605679E+03  1.5880711435E+00  6.4992171093E+00  3.5375989100E-02  3.4421843524E-02  1.3967516238E-01
  5.2029594081E+03  1.5903578913E+00  6.4965087667E+00  3.5497728821E-02  3.4538097609E-02  1.3976500751E-01
  5.2087582484E+03  1.5926453791E+00  6.4938045676E+00  3.5619751103E-02  3.4654608514E-02  1.3985475523E-01
  5.2145570886E+03  1.5949336065E+00  6.4911045011E+00  3.5742056285E-02  3.4771376486E-02  1.3994440902E-01
  5.2203559288E+03  1.5972225728E+00  6.4884085564E+00  3.5864644707E-02  3.4888401770E-02  1.4003397230E-01
  5.2261547690E+03  1.5995122774E+00  6.4857167226E+00  3.5987516709E-02  3.5005684611E-02  1.4012344849E-01
  5.2319536093E+03  1.6018027198E+00  6.4830289888E+00  3.6110672632E-02  3.5123225254E-02  1.4021284100E-01
  5.2377524495E+03  1.6040938993E+00  6.4803453443E+00  3.6234112815E-02  3.5241023944E-02  1.4030215321E-01
  5.2435512897E+03  1.6063858155E+00  6.4776657783E+00  3.6357837598E-02  3.5359080927E-02  1.4039138849E-01
  5.2493501300E+03  1.6086784676E+00  6.4749902801E+00  3.6481847321E-02  3.5477396445E-02  1.4048055018E-01
  5.2551489702E+03  1.6109718552E+00  6.4723188391E+00  3.6606142325E-02  3.5595970745E-02  1.4056964159E-01
  5.2609478104E+03  1.6132659776E+00  6.4696514447E+00  3.6730722949E-02  3.5714804068E-02  1.4065866552E-01
  5.2667466507E+03  1.6155704901E+00  6.4670084324E+00  3.6855589534E-02  3.5833902035E-02  1.4074762430E-01
  5.2725454909E+03  1.6178810748E+00  6.4643805996E+00  3.6980742420E-02  3.5953262541E-02  1.4083652024E-01
  5.2783443311E+03  1.6201924189E+00  6.4617567214E+00  3.7106181947E-02  3.6072882884E-02  1.4092535564E-01
  5.2841431714E+03  1.6225045216E+00  6.4591367875E+00  3.7231908455E-02  3.6192763307E-02  1.4101413280E-01
  5.2899420116E+03  1.6248173825E+00  6.4565207877E+00  3.7357922286E-02  3.6312904055E-02  1.4110285400E-01
  5.2957408518E+03  1.6271310010E+00  6.4539087117E+00  3.7484223778E-02  3.6433305370E-02  1.4119152152E-01
  5.3015396921E+03  1.6294453765E+00  6.4513005493E+00  3.7610813272E-02  3.6553967495E-02  1.4128013763E-01
  5.3073385323E+03  1.6317605084E+00  6.4486962906E+00  3.7737691109E-02  3.6674890673E-02  1.4136870459E-01
  5.3131373725E+03  1.6340763961E+00  6.4460959252E+00  3.7864857629E-02  3.6796075146E-02  1.4145722460E-01
  5.3189362128E+03  1.6363930390E+00  6.4434994433E+00  3.7992313173E-02  3.6917521156E-02  1.4154569923E-01
  5.3247350530E+03  1.6387104366E+00  6.4409068347E+00  3.8120058080E-02  3.7039228946E-02  1.4163412966E-01
  5.3305338932E+03  1.6410285883E+00  6.4383180895E+00  3.8248092692E-02  3.7161198757E-02  1.4172251703E-01
  5.3363327335E+03  1.6433474935E+00  6.4357331977E+00  3.8376417349E-02  3.7283430830E-02  1.4181086249E-01
  5.3421315737E+03  1.6456671517E+00  6.4331521495E+00  3.8505032392E-02  3.7405925408E-02  1.4189916721E-01
  5.3479304139E+03  1.6479875622E+00  6.4305749348E+00  3.8633938160E-02  3.7528682730E-02  1.4198743232E-01
  5.3537292541E+03  1.6503087245E+00  6.4280015440E+00  3.8763134996E-02  3.7651703039E-02  1.4207565898E-01
  5.3595280944E+03  1.6526436547E+00  6.4254623312E+00  3.8892623238E-02  3.7774994424E-02  1.4216384831E-01
  5.3653269346E+03  1.6549793669E+00  6.4229268858E+00  3.9022403228E-02  3.7898549357E-02  1.4225200147E-01
  5.3711257748E+03  1.6573158517E+00  6.4203951780E+00  3.9152475307E-02  3.8022368074E-02  1.4234011949E-01
  5.3769246151E+03  1.6596531086E+00  6.4178671984E+00  3.9282839816E-02  3.8146450815E-02  1.4242820273E-01
  5.3827234553E+03  1.6619911370E+00  6.4153429375E+00  3.9413497094E-02  3.8270797819E-02  1.4251625118E-01
  5.3885222955E+03  1.6643299364E+00  6.4128223857E+00  3.9544447483E-02  3.8395409327E-02  1.4260426486E-01
  5.3943211358E+03  1.6666695061E+00  6.4103055336E+00  3.9675691324E-02  3.8520285579E-02  1.4269224377E-01
  5.4001199760E+03  1.6690098457E+00  6.4077923719E+00  3.9807228957E-02  3.8645426814E-02  1.4278018792E-01
  5.4059188162E+03  1.6713509545E+00  6.4052828911E+00  3.9939060724E-02  3.8770833271E-02  1.4286809733E-01
  5.4117176565E+03  1.6736928319E+00  6.4027770820E+00  4.0071186965E-02  3.8896505189E-02  1.4295597200E-01
  5.4175164967E+03  1.6760354774E+00  6.4002749353E+00  4.0203608021E-02  3.9022442808E-02  1.4304381193E-01
  5.4233153369E+03  1.6783788904E+00  6.3977764416E+00  4.0336324233E-02  3.9148646364E-02  1.4313161715E-01
  5.4291141772E+03  1.6807230704E+00  6.3952815918E+00  4.0469335941E-02  3.9275116098E-02  1.4321938732E-01
  5.4349130174E+03  1.6830680168E+00  6.3927903766E+00  4.0602643488E-02  3.9401852246E-02  1.4330712143E-01
  5.4407118576E+03  1.6854137289E+00  6.3903027869E+00  4.0736247214E-02  3.9528855046E-02  1.4339481845E-01
  5.4465106979E+03  1.6877611351E+00  6.3878212767E+00  4.0870147461E-02  3.9656125345E-02  1.4348247736E-01
  5.4523095381E+03  1.6901194330E+00  6.3853701739E+00  4.1004344568E-02  3.9783669428E-02  1.4357009715E-01
  5.4581083783E+03  1.6924785140E+00  6.3829226157E+00  4.1138838877E-02  3.9911480945E-02  1.4365767679E-01
  5.4639072186E+03  1.6948383776E+00  6.3804785931E+00  4.1273630730E-02  4.0039560134E-02  1.4374521527E-01
  5.4697060588E+03  1.6971990232E+00  6.3780380972E+00  4.1408720468E-02  4.0167907231E-02  1.4383271159E-01
  5.4755048990E+03  1.6995604503E+00  6.3756011194E+00  4.1544108431E-02  4.0296522473E-02  1.4392016473E-01
  5.4813037393E+03  1.7019226581E+00  6.3731676507E+00  4.1680279424E-02  4.0425861838E-02  1.4400757365E-01
  5.4871025795E+03  1.7042856462E+00  6.3707376825E+00  4.1816957728E-02  4.0555665718E-02  1.4409493708E-01
  5.4929014197E+03  1.7066494141E+00  6.3683112060E+00  4.1953939105E-02  4.0685741871E-02  1.4418225429E-01
  5.4987002599E+03  1.7090139611E+00  6.3658882125E+00  4.2091223907E-02  4.0816090541E-02  1.4426952476E-01
  5.5044991002E+03  1.7113792867E+00  6.3634686933E+00  4.2228812483E-02  4.0946711970E-02  1.4435674796E-01
  5.5102979404E+03  1.7137453902E+00  6.3610526398E+00  4.2366705186E-02  4.1077606401E-02  1.4444392338E-01
  5.5160967806E+03  1.7161122713E+00  6.3586400434E+00  4.2504902366E-02  4.1208774076E-02  1.4453105048E-01
  5.5218956209E+03  1.7184799292E+00  6.3562308955E+00  4.2643404374E-02  4.1340215237E-02  1.4461812874E-01
  5.5276944611E+03  1.7208483635E+00  6.3538251877E+00  4.2782211561E-02  4.1471930126E-02  1.4470515766E-01
  5.5334933013E+03  1.7232175735E+00  6.3514229113E+00  4.2921324278E-02  4.1603918986E-02  1.4479213671E-01
  5.5392921416E+03  1.7255875587E+00  6.3490240579E+00  4.3060742876E-02  4.1736182056E-02  1.4487906532E-01
  5.5450909818E+03  1.7279664247E+00  6.3466538357E+00  4.3200467707E-02  4.1868725435E-02  1.4496594325E-01
  5.5508898220E+03  1.7303470356E+00  6.3442899465E+00  4.3340499122E-02  4.2001544258E-02  1.4505277081E-01
  5.5566886623E+03  1.7327284355E+00  6.3419294047E+00  4.3480837471E-02  4.2134638078E-02  1.4513954829E-01
  5.5624875025E+03  1.7351106238E+00  6.3395722018E+00  4.3621483107E-02  4.2268007135E-02  1.4522627604E-01
  5.5682863427E+03  1.7374936000E+00  6.3372183298E+00  4.3762436380E-02  4.2401651670E-02  1.4531295435E-01
  5.5740851830E+03  1.7398773634E+00  6.3348677805E+00  4.3903697641E-02  4.2535571924E-02  1.4539958354E-01
  5.5798840232E+03  1.7422619135E+00  6.3325205458E+00  4.4045267243E-02  4.2669768136E-02  1.4548616393E-01
  5.5856828634E+03  1.7446472499E+00  6.3301766175E+00  4.4187145537E-02  4.2804240546E-02  1.4557269582E-01
  5.5914817037E+03  1.7470333718E+00  6.3278359875E+00  4.4329332873E-02  4.2938989395E-02  1.4565917954E-01
  5.5972805439E+03  1.7494202788E+00  6.3254986478E+00  4.4471829604E-02  4.3074014920E-02  1.4574561539E-01
  5.6030793841E+03  1.7518079703E+00  6.3231645904E+00  4.4614636080E-02  4.3209317362E-02  1.4583200368E-01
  5.6088782244E+03  1.7541964457E+00  6.3208338072E+00  4.4757752654E-02  4.3344896959E-02  1.4591834473E-01
  5.6146770646E+03  1.7565857045E+00  6.3185062904E+00  4.4901179677E-02  4.3480753950E-02  1.4600463883E-01
  5.6204759048E+03  1.7589757462E+00  6.3161820319E+00  4.5044917501E-02  4.3616888573E-02  1.4609088631E-01
  5.6262747451E+03  1.7613665701E+00  6.3138610238E+00  4.5188966477E-02  4.3753301065E-02  1.4617708746E-01
  5.6320735853E+03  1.7637581758E+00  6.3115432583E+00  4.5333326957E-02  4.3889991666E-02  1.4626324259E-01
  5.6378724255E+03  1.7661535634E+00  6.3092402918E+00  4.5477999292E-02  4.4026963040E-02  1.4634935201E-01
  5.6436712657E+03  1.7685537870E+00  6.3069561134E+00  4.5622983835E-02  4.4164216310E-02  1.4643541603E-01
  5.6494701060E+03  1.7709548025E+00  6.3046751066E+00  4.5768280937E-02  4.4301748455E-02  1.4652143508E-01
  5.6552689462E+03  1.7733566095E+00  6.3023972635E+00  4.5913890949E-02  4.4439559712E-02  1.4660740959E-01
  5.6610677864E+03  1.7757592073E+00  6.3001225767E+00  4.6059814225E-02  4.4577650317E-02  1.4669333962E-01
  5.6668666267E+03  1.7781625954E+00  6.2978510384E+00  4.6206051115E-02  4.4716020507E-02  1.4677922522E-01
  5.6726654669E+03  1.7805667733E+00  6.2955826411E+00  4.6352601972E-02  4.4854670519E-02  1.4686506645E-01
  5.6784643071E+03  1.7829717403E+00  6.2933173773E+00  4.6499467147E-02  4.4993600590E-02  1.4695086334E-01
  5.6842631474E+03  1.7853774961E+00  6.2910552394E+00  4.6646646993E-02  4.5132810954E-02  1.4703661596E-01
  5.6900619876E+03  1.7877840399E+00  6.2887962200E+00  4.6794141862E-02  4.5272301847E-02  1.4712232434E-01
  5.6958608278E+03  1.7901913713E+00  6.2865403116E+00  4.6941952104E-02  4.5412073506E-02  1.4720798855E-01
  5.7016596681E+03  1.7925994897E+00  6.2842875066E+00  4.7090078074E-02  4.5552126165E-02  1.4729360864E-01
  5.7074585083E+03  1.7950083947E+00  6.2820377978E+00  4.7238520122E-02  4.5692460058E-02  1.4737918465E-01
  5.7132573485E+03  1.7974180855E+00  6.2797911777E+00  4.7387278601E-02  4.5833075422E-02  1.4746471663E-01
  5.7190561888E+03  1.7998285617E+00  6.2775476389E+00  4.7536353863E-02  4.5973972489E-02  1.4755020464E-01
  5.7248550290E+03  1.8022398228E+00  6.2753071742E+00  4.7685746261E-02  4.6115151495E-02  1.4763564872E-01
  5.7306538692E+03  1.8046518683E+00  6.2730697761E+00  4.7835456146E-02  4.6256612673E-02  1.4772104893E-01
  5.7364527095E+03  1.8070680741E+00  6.2708530384E+00  4.7985483870E-02  4.6398359446E-02  1.4780640532E-01
  5.7422515497E+03  1.8094867093E+00  6.2686478596E+00  4.8135829787E-02  4.6540390445E-02  1.4789171793E-01
  5.7480503899E+03  1.8119061355E+00  6.2664456807E+00  4.8286494248E-02  4.6682704362E-02  1.4797698683E-01
  5.7538492302E+03  1.8143263523E+00  6.2642464949E+00  4.8437477607E-02  4.6825301430E-02  1.4806221205E-01
  5.7596480704E+03  1.8167473589E+00  6.2620502950E+00  4.8588780214E-02  4.6968181883E-02  1.4814739366E-01
  5.7654469106E+03  1.8191691551E+00  6.2598570739E+00  4.8740402423E-02  4.7111345951E-02  1.4823253170E-01
  5.7712457508E+03  1.8215917400E+00  6.2576668246E+00  4.8892344587E-02  4.7254793869E-02  1.4831762622E-01
  5.7770445911E+03  1.8240151134E+00  6.2554795401E+00  4.9044607057E-02  4.7398525868E-02  1.4840267728E-01
  5.7828434313E+03  1.8264392745E+00  6.2532952134E+00  4.9197190186E-02  4.7542542181E-02  1.4848768492E-01
  5.7886422715E+03  1.8288642230E+00  6.2511138376E+00  4.9350094327E-02  4.7686843037E-02  1.4857264921E-01
  5.7944411118E+03  1.8312899581E+00  6.2489354058E+00  4.9503319833E-02  4.7831428670E-02  1.4865757017E-01
  5.8002399520E+03  1.8337164795E+00  6.2467599109E+00  4.9656867056E-02  4.7976299310E-02  1.4874244788E-01
  5.8060387922E+03  1.8361437866E+00  6.2445873462E+00  4.9810736349E-02  4.8121455188E-02  1.4882728238E-01
  5.8118376325E+03  1.8385718788E+00  6.2424177047E+00  4.9964928064E-02  4.8266896535E-02  1.4891207373E-01
  5.8176364727E+03  1.8410007556E+00  6.2402509796E+00  5.0119442554E-02  4.8412623580E-02  1.4899682196E-01
  5.8234353129E+03  1.8434304165E+00  6.2380871641E+00  5.0274280173E-02  4.8558636554E-02  1.4908152714E-01
  5.8292341532E+03  1.8458608610E+00  6.2359262515E+00  5.0429441272E-02  4.8704935687E-02  1.4916618932E-01
  5.8350329934E+03  1.8482939587E+00  6.2337841387E+00  5.0584926205E-02  4.8851523492E-02  1.4925080855E-01
  5.8408318336E+03  1.8507289327E+00  6.2316541481E+00  5.0740735325E-02  4.8998399273E-02  1.4933538487E-01
  5.8466306739E+03  1.8531646935E+00  6.2295269978E+00  5.0896868984E-02  4.9145561937E-02  1.4941991835E-01
  5.8524295141E+03  1.8556012406E+00  6.2274026812E+00  5.1053327536E-02  4.9293011711E-02  1.4950440903E-01
  5.8582283543E+03  1.8580385734E+00  6.2252811918E+00  5.1210111334E-02  4.9440748826E-02  1.4958885697E-01
  5.8640271946E+03  1.8604766916E+00  6.2231625230E+00  5.1367220729E-02  4.9588773509E-02  1.4967326220E-01
  5.8698260348E+03  1.8629155944E+00  6.2210466682E+00  5.1524656077E-02  4.9737085989E-02  1.4975762479E-01
  5.8756248750E+03  1.8653552815E+00  6.2189336210E+00  5.1682417728E-02  4.9885686493E-02  1.4984194487E-01
  5.8814237153E+03  1.8677957522E+00  6.2168233749E+00  5.1840506038E-02  5.0034575250E-02  1.4992622254E-01
  5.8872225555E+03  1.8702370061E+00  6.2147159233E+00  5.1998921359E-02  5.0183752486E-02  1.5001045791E-01
  5.8930213957E+03  1.8726790427E+00  6.2126112600E+00  5.2157664043E-02  5.0333218428E-02  1.5009465110E-01
  5.8988202360E+03  1.8751218614E+00  6.2105093783E+00  5.2316734445E-02  5.0482973305E-02  1.5017880221E-01
  5.9046190762E+03  1.8775654617E+00  6.2084102719E+00  5.2476132917E-02  5.0633017341E-02  1.5026291137E-01
  5.9104179164E+03  1.8800098431E+00  6.2063139345E+00  5.2635859813E-02  5.0783350764E-02  1.5034697867E-01
  5.9162167566E+03  1.8824550050E+00  6.2042203596E+00  5.2795915487E-02  5.0933973799E-02  1.5043100423E-01
  5.9220155969E+03  1.8849009470E+00  6.2021295410E+00  5.2956300290E-02  5.1084886673E-02  1.5051498815E-01
  5.9278144371E+03  1.8873476686E+00  6.2000414722E+00  5.3117014578E-02  5.1236089611E-02  1.5059893056E-01
  5.9336132773E+03  1.8897954354E+00  6.1979633375E+00  5.3278058703E-02  5.1387583529E-02  1.5068283156E-01
  5.9394121176E+03  1.8922446129E+00  6.1959049594E+00  5.3439433018E-02  5.1539369615E-02  1.5076669126E-01
  5.9452109578E+03  1.8946945699E+00  6.1938492725E+00  5.3601137878E-02  5.1691446466E-02  1.5085050976E-01
  5.9510097980E+03  1.8971453058E+00  6.1917962709E+00  5.3763173635E-02  5.1843814304E-02  1.5093428719E-01
  5.9568086383E+03  1.8995968201E+00  6.1897459482E+00  5.3925540644E-02  5.1996473356E-02  1.5101802364E-01
  5.9626074785E+03  1.9020491124E+00  6.1876982985E+00  5.4088239257E-02  5.2149423844E-02  1.5110171924E-01
  5.9684063187E+03  1.9045021820E+00  6.1856533156E+00  5.4251269829E-02  5.2302665992E-02  1.5118537408E-01
  5.9742051590E+03  1.9069560285E+00  6.1836109935E+00  5.4414632713E-02  5.2456200025E-02  1.5126898827E-01
  5.9800039992E+03  1.9094106514E+00  6.1815713261E+00  5.4578328262E-02  5.2610026166E-02  1.5135256194E-01
  5.9858028394E+03  1.9118660502E+00  6.1795343075E+00  5.4742356831E-02  5.2764144636E-02  1.5143609517E-01
  5.9916016797E+03  1.9143222244E+00  6.1774999316E+00  5.4906718773E-02  5.2918555660E-02  1.5151958809E-01
  5.9974005199E+03  1.9167791734E+00  6.1754681924E+00  5.5071414442E-02  5.3073259460E-02  1.5160304081E-01
  6.0031993601E+03  1.9192368968E+00  6.1734390840E+00  5.5236928114E-02  5.3228705632E-02  1.5168645342E-01
  6.0089982004E+03  1.9216953940E+00  6.1714126005E+00  5.5403172818E-02  5.3384813115E-02  1.5176982604E-01
  6.0147970406E+03  1.9241546646E+00  6.1693887358E+00  5.5569756715E-02  5.3541217878E-02  1.5185315878E-01
  6.0205958808E+03  1.9266147080E+00  6.1673674842E+00  5.5736680169E-02  5.3697920149E-02  1.5193645175E-01
  6.0263947211E+03  1.9290755238E+00  6.1653488397E+00  5.5903943543E-02  5.3854920156E-02  1.5201970504E-01
  6.0321935613E+03  1.9315371114E+00  6.1633327965E+00  5.6071547201E-02  5.4012218127E-02  1.5210291878E-01
  6.0379924015E+03  1.9339993430E+00  6.1613348006E+00  5.6239491508E-02  5.4169815384E-02  1.5218609307E-01
  6.0437912418E+03  1.9364622804E+00  6.1593472273E+00  5.6407776826E-02  5.4327711633E-02  1.5226922801E-01
  6.0495900820E+03  1.9389259878E+00  6.1573622003E+00  5.6576403521E-02  5.4485906547E-02  1.5235232372E-01
  6.0553889222E+03  1.9413904648E+00  6.1553797140E+00  5.6745371957E-02  5.4644400352E-02  1.5243538030E-01
  6.0611877624E+03  1.9438557108E+00  6.1533997627E+00  5.6914682496E-02  5.4803193276E-02  1.5251839785E-01
  6.0669866027E+03  1.9463217253E+00  6.1514223406E+00  5.7084335505E-02  5.4962285544E-02  1.5260137651E-01
  6.0727854429E+03  1.9487885080E+00  6.1494474423E+00  5.7254331346E-02  5.5121677382E-02  1.5268431642E-01
  6.0785842831E+03  1.9512560581E+00  6.1474750619E+00  5.7424670384E-02  5.5281369016E-02  1.5276721769E-01
  6.0843831234E+03  1.9537243754E+00  6.1455051940E+00  5.7595352983E-02  5.5441360672E-02  1.5285008041E-01
  6.0901819636E+03  1.9561934592E+00  6.1435378330E+00  5.7766379508E-02  5.5601652574E-02  1.5293290470E-01
  6.0959808038E+03  1.9586633091E+00  6.1415729732E+00  5.7937750322E-02  5.5762244947E-02  1.5301569065E-01
  6.1017796441E+03  1.9611339246E+00  6.1396106091E+00  5.8109465791E-02  5.5923138016E-02  1.5309843835E-01
  6.1075784843E+03  1.9636053052E+00  6.1376507352E+00  5.8281526279E-02  5.6084332005E-02  1.5318114791E-01
  6.1133773245E+03  1.9660774504E+00  6.1356933459E+00  5.8453932149E-02  5.6245827138E-02  1.5326381942E-01
  6.1191761648E+03  1.9685503598E+00  6.1337384359E+00  5.8626683768E-02  5.6407623639E-02  1.5334645298E-01
  6.1249750050E+03  1.9710240327E+00  6.1317859994E+00  5.8799781498E-02  5.6569721731E-02  1.5342904869E-01
  6.1307738452E+03  1.9734984688E+00  6.1298360312E+00  5.8973225705E-02  5.6732121636E-02  1.5351160666E-01
  6.1365726855E+03  1.9759736676E+00  6.1278885257E+00  5.9147016753E-02  5.6894823579E-02  1.5359412697E-01
  6.1423715257E+03  1.9784498188E+00  6.1259597350E+00  5.9321155007E-02  5.7057829350E-02  1.5367660972E-01
  6.1481703659E+03  1.9809268043E+00  6.1240395397E+00  5.9495640832E-02  5.7221138218E-02  1.5375905502E-01
  6.1539692062E+03  1.9834045513E+00  6.1221217557E+00  5.9670474592E-02  5.7384749814E-02  1.5384146296E-01
  6.1597680464E+03  1.9858830596E+00  6.1202063777E+00  5.9845656652E-02  5.7548664359E-02  1.5392383364E-01
  6.1655668866E+03  1.9883623284E+00  6.1182934004E+00  6.0021187377E-02  5.7712882074E-02  1.5400616715E-01
  6.1713657269E+03  1.9908423574E+00  6.1163828185E+00  6.0197067132E-02  5.7877403181E-02  1.5408846360E-01
  6.1771645671E+03  1.9933231461E+00  6.1144746268E+00  6.0373296281E-02  5.8042227901E-02  1.5417072308E-01
  6.1829634073E+03  1.9958046940E+00  6.1125688201E+00  6.0549875189E-02  5.8207356455E-02  1.5425294569E-01
  6.1887622476E+03  1.9982870007E+00  6.1106653931E+00  6.0726804222E-02  5.8372789062E-02  1.5433513153E-01
  6.1945610878E+03  2.0007700655E+00  6.1087643407E+00  6.0904083745E-02  5.8538525943E-02  1.5441728068E-01
  6.2003599280E+03  2.0032538882E+00  6.1068656576E+00  6.1081714122E-02  5.8704567319E-02  1.5449939326E-01
  6.2061587682E+03  2.0057384681E+00  6.1049693388E+00  6.1259695718E-02  5.8870913407E-02  1.5458146935E-01
  6.2119576085E+03  2.0082238048E+00  6.1030753790E+00  6.1438028898E-02  5.9037564428E-02  1.5466350906E-01
  6.2177564487E+03  2.0107098979E+00  6.1011837731E+00  6.1616714029E-02  5.9204520601E-02  1.5474551248E-01
  6.2235552889E+03  2.0131967468E+00  6.0992945161E+00  6.1795751474E-02  5.9371782143E-02  1.5482747971E-01
  6.2293541292E+03  2.0156843511E+00  6.0974076028E+00  6.1975141599E-02  5.9539349274E-02  1.5490941083E-01
  6.2351529694E+03  2.0181727103E+00  6.0955230280E+00  6.2154884770E-02  5.9707222212E-02  1.5499130596E-01
  6.2409518096E+03  2.0206618239E+00  6.0936407869E+00  6.2334981351E-02  5.9875401173E-02  1.5507316519E-01
  6.2467506499E+03  2.0231521010E+00  6.0917711811E+00  6.2515431708E-02  6.0043887739E-02  1.5515498860E-01
  6.2525494901E+03  2.0256435804E+00  6.0899151486E+00  6.2696236206E-02  6.0212682275E-02  1.5523677631E-01
  6.2583483303E+03  2.0281358142E+00  6.0880614014E+00  6.2877395211E-02  6.0381783515E-02  1.5531852840E-01
  6.2641471706E+03  2.0306288018E+00  6.0862099345E+00  6.3058909087E-02  6.0551191677E-02  1.5540024496E-01
  6.2699460108E+03  2.0331225428E+00  6.0843607430E+00  6.3240778202E-02  6.0720906977E-02  1.5548192605E-01
  6.2757448510E+03  2.0356170368E+00  6.0825138220E+00  6.3423002919E-02  6.0890929632E-02  1.5556357175E-01
  6.2815436913E+03  2.0381122832E+00  6.0806691667E+00  6.3605583605E-02  6.1061259856E-02  1.5564518215E-01
  6.2873425315E+03  2.0406082816E+00  6.0788267721E+00  6.3788520625E-02  6.1231897867E-02  1.5572675735E-01
  6.2931413717E+03  2.0431050315E+00  6.0769866335E+00  6.3971814345E-02  6.1402843878E-02  1.5580829745E-01
  6.2989402120E+03  2.0456025324E+00  6.0751487460E+00  6.4155465130E-02  6.1574098105E-02  1.5588980255E-01
  6.3047390522E+03  2.0481007840E+00  6.0733131047E+00  6.4339473347E-02  6.1745660763E-02  1.5597127275E-01
  6.3105378924E+03  2.0505997857E+00  6.0714797049E+00  6.4523839360E-02  6.1917532066E-02  1.5605270814E-01
  6.3163367327E+03  2.0530995370E+00  6.0696485417E+00  6.4708563536E-02  6.2089712229E-02  1.5613410881E-01
  6.3221355729E+03  2.0556000375E+00  6.0678196105E+00  6.4893646240E-02  6.2262201464E-02  1.5621547488E-01
  6.3279344131E+03  2.0581012867E+00  6.0659929063E+00  6.5079087838E-02  6.2434999986E-02  1.5629680643E-01
  6.3337332533E+03  2.0606032843E+00  6.0641684246E+00  6.5264888697E-02  6.2608108007E-02  1.5637810357E-01
  6.3395320936E+03  2.0631060296E+00  6.0623461604E+00  6.5451049181E-02  6.2781525742E-02  1.5645936638E-01
  6.3453309338E+03  2.0656095222E+00  6.0605261092E+00  6.5637569658E-02  6.2955253401E-02  1.5654059497E-01
  6.3511297740E+03  2.0681137618E+00  6.0587082662E+00  6.5824450492E-02  6.3129291198E-02  1.5662178943E-01
  6.3569286143E+03  2.0706200844E+00  6.0569116292E+00  6.6011692051E-02  6.3303642669E-02  1.5670294986E-01
  6.3627274545E+03  2.0731272779E+00  6.0551189070E+00  6.6199294700E-02  6.3478305041E-02  1.5678407636E-01
  6.3685262947E+03  2.0756352191E+00  6.0533283477E+00  6.6387258804E-02  6.3653278220E-02  1.5686516902E-01
  6.3743251350E+03  2.0781439075E+00  6.0515399468E+00  6.6575584731E-02  6.3828562418E-02  1.5694622794E-01
  6.3801239752E+03  2.0806533428E+00  6.0497536998E+00  6.6764272847E-02  6.4004157846E-02  1.5702725321E-01
  6.3859228154E+03  2.0831635244E+00  6.0479696020E+00  6.6953323517E-02  6.4180064715E-02  1.5710824494E-01
  6.3917216557E+03  2.0856744518E+00  6.0461876491E+00  6.7142737108E-02  6.4356283235E-02  1.5718920321E-01
  6.3975204959E+03  2.0881861247E+00  6.0444078364E+00  6.7332513986E-02  6.4532813616E-02  1.5727012813E-01
  6.4033193361E+03  2.0906985426E+00  6.0426301594E+00  6.7522654517E-02  6.4709656068E-02  1.5735101978E-01
  6.4091181764E+03  2.0932117050E+00  6.0408546137E+00  6.7713159069E-02  6.4886810800E-02  1.5743187827E-01
  6.4149170166E+03  2.0957256114E+00  6.0390811947E+00  6.7904028007E-02  6.5064278022E-02  1.5751270369E-01
  6.4207158568E+03  2.0982402615E+00  6.0373098980E+00  6.8095261697E-02  6.5242057942E-02  1.5759349614E-01
  6.4265146971E+03  2.1007556547E+00  6.0355407192E+00  6.8286860506E-02  6.5420150770E-02  1.5767425571E-01
  6.4323135373E+03  2.1032717906E+00  6.0337736538E+00  6.8478824802E-02  6.5598556712E-02  1.5775498250E-01
  6.4381123775E+03  2.1057886688E+00  6.0320086973E+00  6.8671154949E-02  6.5777275978E-02  1.5783567660E-01
  6.4439112178E+03  2.1083062888E+00  6.0302458455E+00  6.8863851315E-02  6.5956308774E-02  1.5791633811E-01
  6.4497100580E+03  2.1108246501E+00  6.0284850938E+00  6.9056914266E-02  6.6135655309E-02  1.5799696712E-01
  6.4555088982E+03  2.1133437524E+00  6.0267264378E+00  6.9250344169E-02  6.6315315789E-02  1.5807756373E-01
  6.4613077385E+03  2.1158636657E+00  6.0249705551E+00  6.9444141391E-02  6.6495290574E-02  1.5815812804E-01
  6.4671065787E+03  2.1183863165E+00  6.0232360255E+00  6.9638306299E-02  6.6675584058E-02  1.5823866013E-01
  6.4729054189E+03  2.1209097101E+00  6.0215035492E+00  6.9832839258E-02  6.6856192148E-02  1.5831916010E-01
  6.4787042591E+03  2.1234338458E+00  6.0197731219E+00  7.0027740637E-02  6.7037115050E-02  1.5839962805E-01
  6.4845030994E+03  2.1259587233E+00  6.0180447394E+00  7.0223010801E-02  6.7218352969E-02  1.5848006408E-01
  6.4903019396E+03  2.1284843420E+00  6.0163183974E+00  7.0418650118E-02  6.7399906110E-02  1.5856046826E-01
  6.4961007798E+03  2.1310107016E+00  6.0145940916E+00  7.0614658954E-02  6.7581774680E-02  1.5864084071E-01
  6.5018996201E+03  2.1335378017E+00  6.0128718180E+00  7.0811037677E-02  6.7763958882E-02  1.5872118152E-01
  6.5076984603E+03  2.1360656416E+00  6.0111515722E+00  7.1007786653E-02  6.7946458922E-02  1.5880149077E-01
  6.5134973005E+03  2.1385942212E+00  6.0094333501E+00  7.1204906250E-02  6.8129275003E-02  1.5888176857E-01
  6.5192961408E+03  2.1411235398E+00  6.0077171475E+00  7.1402396834E-02  6.8312407329E-02  1.5896201501E-01
  6.5250949810E+03  2.1436535970E+00  6.0060029602E+00  7.1600258773E-02  6.8495856103E-02  1.5904223017E-01
  6.5308938212E+03  2.1461843924E+00  6.0042907841E+00  7.1798492433E-02  6.8679621530E-02  1.5912241416E-01
  6.5366926615E+03  2.1487159256E+00  6.0025806151E+00  7.1997098182E-02  6.8863703811E-02  1.5920256708E-01
  6.5424915017E+03  2.1512481961E+00  6.0008724489E+00  7.2196076387E-02  6.9048103150E-02  1.5928268900E-01
  6.5482903419E+03  2.1537812035E+00  5.9991662816E+00  7.2395427416E-02  6.9232819748E-02  1.5936278003E-01
  6.5540891822E+03  2.1563149473E+00  5.9974621089E+00  7.2595151634E-02  6.9417853808E-02  1.5944284026E-01
  6.5598880224E+03  2.1588494272E+00  5.9957599268E+00  7.2795249411E-02  6.9603205532E-02  1.5952286978E-01
  6.5656868626E+03  2.1613846425E+00  5.9940597312E+00  7.2995721113E-02  6.9788875120E-02  1.5960286869E-01
