#[MATERIAL DEFINITION FOR MC-GPU: interaction mean free path and sampling data from PENELOPE 2006]
#[MATERIAL NAME]
# GNPandWater                                                   
#[NOMINAL DENSITY (g/cm^3)]
#   1.00000000
#[NUMBER OF DATA VALUES]
#  23002
#[MEAN FREE PATHS (cm) (ie, average distance between interactions)]
#[Energy (eV)     | Rayleigh        | Compton         | Photoelectric   | TOTAL (+pair prod) (cm) | Rayleigh: max cumul prob F^2]
  5.0000000000E+03  3.5286582125E+00  4.3283839165E+00  6.3568127019E-02  6.1555200692E-02  4.1268418090E-01
  5.0010868620E+03  3.5296542365E+00  4.3279040833E+00  6.3610017780E-02  6.1594685861E-02  4.1273757569E-01
  5.0021737240E+03  3.5306503251E+00  4.3274244076E+00  6.3651927034E-02  6.1634187115E-02  4.1279095414E-01
  5.0032605860E+03  3.5316464783E+00  4.3269448893E+00  6.3693854785E-02  6.1673704458E-02  4.1284431625E-01
  5.0043474480E+03  3.5326426961E+00  4.3264655282E+00  6.3735801037E-02  6.1713237892E-02  4.1289766204E-01
  5.0054343101E+03  3.5336389785E+00  4.3259863243E+00  6.3777765796E-02  6.1752787418E-02  4.1295099151E-01
  5.0065211721E+03  3.5346353255E+00  4.3255072776E+00  6.3819749063E-02  6.1792353040E-02  4.1300430468E-01
  5.0076080341E+03  3.5356317371E+00  4.3250283878E+00  6.3861750845E-02  6.1831934758E-02  4.1305760156E-01
  5.0086948961E+03  3.5366282132E+00  4.3245496550E+00  6.3903771144E-02  6.1871532576E-02  4.1311088215E-01
  5.0097817581E+03  3.5376247538E+00  4.3240710790E+00  6.3945809965E-02  6.1911146496E-02  4.1316414646E-01
  5.0108686201E+03  3.5386213590E+00  4.3235926597E+00  6.3987867313E-02  6.1950776519E-02  4.1321739451E-01
  5.0119554821E+03  3.5396180287E+00  4.3231143972E+00  6.4029943191E-02  6.1990422648E-02  4.1327062630E-01
  5.0130423441E+03  3.5406147629E+00  4.3226362912E+00  6.4072037603E-02  6.2030084885E-02  4.1332384184E-01
  5.0141292062E+03  3.5416115617E+00  4.3221583417E+00  6.4114150554E-02  6.2069763233E-02  4.1337704114E-01
  5.0152160682E+03  3.5426084249E+00  4.3216805487E+00  6.4156282048E-02  6.2109457693E-02  4.1343022422E-01
  5.0163029302E+03  3.5436053526E+00  4.3212029120E+00  6.4198432089E-02  6.2149168268E-02  4.1348339108E-01
  5.0173897922E+03  3.5446023449E+00  4.3207254315E+00  6.4240600681E-02  6.2188894960E-02  4.1353654173E-01
  5.0184766542E+03  3.5455994015E+00  4.3202481072E+00  6.4282787828E-02  6.2228637771E-02  4.1358967618E-01
  5.0195635162E+03  3.5465965226E+00  4.3197709390E+00  6.4324993534E-02  6.2268396703E-02  4.1364279444E-01
  5.0206503782E+03  3.5475937082E+00  4.3192939267E+00  6.4367217804E-02  6.2308171759E-02  4.1369589651E-01
  5.0217372402E+03  3.5485909582E+00  4.3188170704E+00  6.4409460641E-02  6.2347962941E-02  4.1374898242E-01
  5.0228241023E+03  3.5495882727E+00  4.3183403699E+00  6.4451722050E-02  6.2387770250E-02  4.1380205216E-01
  5.0239109643E+03  3.5505856516E+00  4.3178638251E+00  6.4494002035E-02  6.2427593689E-02  4.1385510575E-01
  5.0249978263E+03  3.5515830948E+00  4.3173874360E+00  6.4536300601E-02  6.2467433261E-02  4.1390814320E-01
  5.0260846883E+03  3.5525806025E+00  4.3169112025E+00  6.4578617750E-02  6.2507288967E-02  4.1396116452E-01
  5.0271715503E+03  3.5535781746E+00  4.3164351244E+00  6.4620953488E-02  6.2547160809E-02  4.1401416971E-01
  5.0282584123E+03  3.5545758110E+00  4.3159592018E+00  6.4663307818E-02  6.2587048790E-02  4.1406715878E-01
  5.0293452743E+03  3.5555735118E+00  4.3154834345E+00  6.4705680745E-02  6.2626952912E-02  4.1412013175E-01
  5.0304321363E+03  3.5565712770E+00  4.3150078224E+00  6.4748072272E-02  6.2666873178E-02  4.1417308863E-01
  5.0315189983E+03  3.5575691065E+00  4.3145323654E+00  6.4790482405E-02  6.2706809588E-02  4.1422602942E-01
  5.0326058604E+03  3.5585670004E+00  4.3140570635E+00  6.4832911146E-02  6.2746762146E-02  4.1427895413E-01
  5.0336927224E+03  3.5595649586E+00  4.3135819166E+00  6.4875358501E-02  6.2786730854E-02  4.1433186277E-01
  5.0347795844E+03  3.5605629811E+00  4.3131069246E+00  6.4917824473E-02  6.2826715713E-02  4.1438475535E-01
  5.0358664464E+03  3.5615610679E+00  4.3126320874E+00  6.4960309067E-02  6.2866716726E-02  4.1443763189E-01
  5.0369533084E+03  3.5625592191E+00  4.3121574050E+00  6.5002812286E-02  6.2906733896E-02  4.1449049238E-01
  5.0380401704E+03  3.5635574345E+00  4.3116828772E+00  6.5045334135E-02  6.2946767224E-02  4.1454333684E-01
  5.0391270324E+03  3.5645557142E+00  4.3112085039E+00  6.5087874618E-02  6.2986816712E-02  4.1459616529E-01
  5.0402138944E+03  3.5655540582E+00  4.3107342851E+00  6.5130433739E-02  6.3026882363E-02  4.1464897772E-01
  5.0413007565E+03  3.5665524664E+00  4.3102602207E+00  6.5173011502E-02  6.3066964178E-02  4.1470177414E-01
  5.0423876185E+03  3.5675509389E+00  4.3097863107E+00  6.5215607912E-02  6.3107062161E-02  4.1475455458E-01
  5.0434744805E+03  3.5685494757E+00  4.3093125548E+00  6.5258222972E-02  6.3147176312E-02  4.1480731903E-01
  5.0445613425E+03  3.5695480767E+00  4.3088389531E+00  6.5300856686E-02  6.3187306635E-02  4.1486006750E-01
  5.0456482045E+03  3.5705480591E+00  4.3083688962E+00  6.5343509060E-02  6.3227454275E-02  4.1491280001E-01
  5.0467350665E+03  3.5715497984E+00  4.3079033456E+00  6.5386180096E-02  6.3267619563E-02  4.1496551656E-01
  5.0478219285E+03  3.5725516030E+00  4.3074379456E+00  6.5428869800E-02  6.3307801035E-02  4.1501821717E-01
  5.0489087905E+03  3.5735534728E+00  4.3069726961E+00  6.5471578175E-02  6.3347998692E-02  4.1507090184E-01
  5.0499956526E+03  3.5745554078E+00  4.3065075969E+00  6.5514305225E-02  6.3388212538E-02  4.1512357058E-01
  5.0510825146E+03  3.5755574080E+00  4.3060426480E+00  6.5557050954E-02  6.3428442573E-02  4.1517622340E-01
  5.0521693766E+03  3.5765594734E+00  4.3055778494E+00  6.5599815367E-02  6.3468688801E-02  4.1522886031E-01
  5.0532562386E+03  3.5775616040E+00  4.3051132009E+00  6.5642598468E-02  6.3508951224E-02  4.1528148132E-01
  5.0543431006E+03  3.5785637998E+00  4.3046487024E+00  6.5685400261E-02  6.3549229843E-02  4.1533408643E-01
  5.0554299626E+03  3.5795660607E+00  4.3041843539E+00  6.5728220750E-02  6.3589524660E-02  4.1538667567E-01
  5.0565168246E+03  3.5805683869E+00  4.3037201553E+00  6.5771059940E-02  6.3629835679E-02  4.1543924903E-01
  5.0576036866E+03  3.5815707782E+00  4.3032561065E+00  6.5813917833E-02  6.3670162901E-02  4.1549180653E-01
  5.0586905486E+03  3.5825732346E+00  4.3027922075E+00  6.5856794435E-02  6.3710506328E-02  4.1554434817E-01
  5.0597774107E+03  3.5835757561E+00  4.3023284581E+00  6.5899689750E-02  6.3750865963E-02  4.1559687396E-01
  5.0608642727E+03  3.5845783428E+00  4.3018648582E+00  6.5942603782E-02  6.3791241807E-02  4.1564938392E-01
  5.0619511347E+03  3.5855809946E+00  4.3014014079E+00  6.5985536534E-02  6.3831633862E-02  4.1570187805E-01
  5.0630379967E+03  3.5865837115E+00  4.3009381070E+00  6.6028488012E-02  6.3872042132E-02  4.1575435637E-01
  5.0641248587E+03  3.5875864936E+00  4.3004749554E+00  6.6071458219E-02  6.3912466618E-02  4.1580681887E-01
  5.0652117207E+03  3.5885893406E+00  4.3000119530E+00  6.6114447159E-02  6.3952907321E-02  4.1585926557E-01
  5.0662985827E+03  3.5895922528E+00  4.2995490998E+00  6.6157454837E-02  6.3993364245E-02  4.1591169648E-01
  5.0673854447E+03  3.5905952300E+00  4.2990863957E+00  6.6200481256E-02  6.4033837392E-02  4.1596411161E-01
  5.0684723068E+03  3.5915982723E+00  4.2986238407E+00  6.6243526421E-02  6.4074326763E-02  4.1601651097E-01
  5.0695591688E+03  3.5926013797E+00  4.2981614345E+00  6.6286590336E-02  6.4114832361E-02  4.1606889456E-01
  5.0706460308E+03  3.5936045521E+00  4.2976991772E+00  6.6329673006E-02  6.4155354187E-02  4.1612126240E-01
  5.0717328928E+03  3.5946077895E+00  4.2972370687E+00  6.6372774433E-02  6.4195892245E-02  4.1617361449E-01
  5.0728197548E+03  3.5956110919E+00  4.2967751088E+00  6.6415894623E-02  6.4236446536E-02  4.1622595085E-01
  5.0739066168E+03  3.5966144593E+00  4.2963132976E+00  6.6459033580E-02  6.4277017062E-02  4.1627827148E-01
  5.0749934788E+03  3.5976178917E+00  4.2958516349E+00  6.6502191307E-02  6.4317603825E-02  4.1633057638E-01
  5.0760803408E+03  3.5986213892E+00  4.2953901207E+00  6.6545367809E-02  6.4358206828E-02  4.1638286558E-01
  5.0771672029E+03  3.5996249516E+00  4.2949287548E+00  6.6588563090E-02  6.4398826073E-02  4.1643513908E-01
  5.0782540649E+03  3.6006285789E+00  4.2944675372E+00  6.6631777154E-02  6.4439461561E-02  4.1648739689E-01
  5.0793409269E+03  3.6016322713E+00  4.2940064678E+00  6.6675010005E-02  6.4480113296E-02  4.1653963901E-01
  5.0804277889E+03  3.6026360285E+00  4.2935455466E+00  6.6718261648E-02  6.4520781278E-02  4.1659186546E-01
  5.0815146509E+03  3.6036398507E+00  4.2930847734E+00  6.6761532086E-02  6.4561465511E-02  4.1664407625E-01
  5.0826015129E+03  3.6046437379E+00  4.2926241482E+00  6.6804821324E-02  6.4602165996E-02  4.1669627138E-01
  5.0836883749E+03  3.6056476900E+00  4.2921636709E+00  6.6848129365E-02  6.4642882736E-02  4.1674845086E-01
  5.0847752369E+03  3.6066517069E+00  4.2917033414E+00  6.6891456215E-02  6.4683615732E-02  4.1680061471E-01
  5.0858620989E+03  3.6076557888E+00  4.2912431596E+00  6.6934801877E-02  6.4724364987E-02  4.1685276293E-01
  5.0869489610E+03  3.6086599356E+00  4.2907831255E+00  6.6978166355E-02  6.4765130502E-02  4.1690489553E-01
  5.0880358230E+03  3.6096641473E+00  4.2903232390E+00  6.7021549654E-02  6.4805912281E-02  4.1695701251E-01
  5.0891226850E+03  3.6106684238E+00  4.2898635000E+00  6.7064951777E-02  6.4846710325E-02  4.1700911390E-01
  5.0902095470E+03  3.6116727652E+00  4.2894039084E+00  6.7108372729E-02  6.4887524636E-02  4.1706119969E-01
  5.0912964090E+03  3.6126785171E+00  4.2889478811E+00  6.7151812513E-02  6.4928356434E-02  4.1711326989E-01
  5.0923832710E+03  3.6136859582E+00  4.2884961216E+00  6.7195271135E-02  6.4969205977E-02  4.1716532453E-01
  5.0934701330E+03  3.6146934652E+00  4.2880445060E+00  6.7238748598E-02  6.5010071799E-02  4.1721736359E-01
  5.0945569950E+03  3.6157010380E+00  4.2875930344E+00  6.7282244906E-02  6.5050953904E-02  4.1726938710E-01
  5.0956438571E+03  3.6167086767E+00  4.2871417065E+00  6.7325760063E-02  6.5091852292E-02  4.1732139506E-01
  5.0967307191E+03  3.6177163812E+00  4.2866905225E+00  6.7369294074E-02  6.5132766966E-02  4.1737338748E-01
  5.0978175811E+03  3.6187241515E+00  4.2862394820E+00  6.7412846943E-02  6.5173697928E-02  4.1742536437E-01
  5.0989044431E+03  3.6197319876E+00  4.2857885852E+00  6.7456418674E-02  6.5214645181E-02  4.1747732574E-01
  5.0999913051E+03  3.6207398895E+00  4.2853378319E+00  6.7500009271E-02  6.5255608725E-02  4.1752927159E-01
  5.1010781671E+03  3.6217478572E+00  4.2848872221E+00  6.7543618737E-02  6.5296588564E-02  4.1758120194E-01
  5.1021650291E+03  3.6227558907E+00  4.2844367556E+00  6.7587247079E-02  6.5337584700E-02  4.1763311680E-01
  5.1032518911E+03  3.6237639899E+00  4.2839864324E+00  6.7630894298E-02  6.5378597134E-02  4.1768501616E-01
  5.1043387532E+03  3.6247721549E+00  4.2835362524E+00  6.7674560400E-02  6.5419625869E-02  4.1773690005E-01
  5.1054256152E+03  3.6257803856E+00  4.2830862155E+00  6.7718245389E-02  6.5460670907E-02  4.1778876848E-01
  5.1065124772E+03  3.6267886821E+00  4.2826363217E+00  6.7761949269E-02  6.5501732250E-02  4.1784062144E-01
  5.1075993392E+03  3.6277970443E+00  4.2821865709E+00  6.7805672044E-02  6.5542809900E-02  4.1789245895E-01
  5.1086862012E+03  3.6288054722E+00  4.2817369630E+00  6.7849413718E-02  6.5583903859E-02  4.1794428101E-01
  5.1097730632E+03  3.6298139658E+00  4.2812874980E+00  6.7893174295E-02  6.5625014130E-02  4.1799608765E-01
  5.1108599252E+03  3.6308225251E+00  4.2808381757E+00  6.7936953780E-02  6.5666140714E-02  4.1804787885E-01
  5.1119467872E+03  3.6318311502E+00  4.2803889961E+00  6.7980752176E-02  6.5707283613E-02  4.1809965465E-01
  5.1130336492E+03  3.6328398408E+00  4.2799399591E+00  6.8024569489E-02  6.5748442830E-02  4.1815141503E-01
  5.1141205113E+03  3.6338485972E+00  4.2794910646E+00  6.8068405721E-02  6.5789618367E-02  4.1820316002E-01
  5.1152073733E+03  3.6348574192E+00  4.2790423126E+00  6.8112260877E-02  6.5830810226E-02  4.1825488961E-01
  5.1162942353E+03  3.6358663069E+00  4.2785937029E+00  6.8156134961E-02  6.5872018408E-02  4.1830660383E-01
  5.1173810973E+03  3.6368752602E+00  4.2781452356E+00  6.8200027978E-02  6.5913242917E-02  4.1835830267E-01
  5.1184679593E+03  3.6378842791E+00  4.2776969105E+00  6.8243939931E-02  6.5954483754E-02  4.1840998614E-01
  5.1195548213E+03  3.6388933637E+00  4.2772487275E+00  6.8287870824E-02  6.5995740921E-02  4.1846165427E-01
  5.1206416833E+03  3.6399025139E+00  4.2768006867E+00  6.8331820663E-02  6.6037014420E-02  4.1851330704E-01
  5.1217285453E+03  3.6409117296E+00  4.2763527878E+00  6.8375789450E-02  6.6078304254E-02  4.1856494448E-01
  5.1228154074E+03  3.6419210110E+00  4.2759050309E+00  6.8419777191E-02  6.6119610424E-02  4.1861656659E-01
  5.1239022694E+03  3.6429303579E+00  4.2754574158E+00  6.8463783889E-02  6.6160932933E-02  4.1866817338E-01
  5.1249891314E+03  3.6439397704E+00  4.2750099425E+00  6.8507809548E-02  6.6202271782E-02  4.1871976485E-01
  5.1260759934E+03  3.6449492485E+00  4.2745626109E+00  6.8551854172E-02  6.6243626974E-02  4.1877134103E-01
  5.1271628554E+03  3.6459587922E+00  4.2741154209E+00  6.8595917767E-02  6.6284998512E-02  4.1882290191E-01
  5.1282497174E+03  3.6469684013E+00  4.2736683725E+00  6.8640000335E-02  6.6326386396E-02  4.1887444750E-01
  5.1293365794E+03  3.6479780760E+00  4.2732214656E+00  6.8684101881E-02  6.6367790629E-02  4.1892597781E-01
  5.1304234414E+03  3.6489878163E+00  4.2727747000E+00  6.8728222409E-02  6.6409211213E-02  4.1897749286E-01
  5.1315103035E+03  3.6499976220E+00  4.2723280758E+00  6.8772361923E-02  6.6450648151E-02  4.1902899265E-01
  5.1325971655E+03  3.6510074933E+00  4.2718815929E+00  6.8816520428E-02  6.6492101443E-02  4.1908047719E-01
  5.1336840275E+03  3.6520174300E+00  4.2714352511E+00  6.8860697927E-02  6.6533571093E-02  4.1913194648E-01
  5.1347708895E+03  3.6530274323E+00  4.2709890505E+00  6.8904894425E-02  6.6575057103E-02  4.1918340054E-01
  5.1358577515E+03  3.6540375000E+00  4.2705429908E+00  6.8949109925E-02  6.6616559474E-02  4.1923483937E-01
  5.1369446135E+03  3.6550478935E+00  4.2700977245E+00  6.8993344433E-02  6.6658078455E-02  4.1928626299E-01
  5.1380314755E+03  3.6560610218E+00  4.2696592843E+00  6.9037597952E-02  6.6699616321E-02  4.1933767140E-01
  5.1391183375E+03  3.6570742166E+00  4.2692209819E+00  6.9081870486E-02  6.6741170561E-02  4.1938906460E-01
  5.1402051995E+03  3.6580874778E+00  4.2687828171E+00  6.9126162039E-02  6.6782741178E-02  4.1944044262E-01
  5.1412920616E+03  3.6591008054E+00  4.2683447899E+00  6.9170472616E-02  6.6824328172E-02  4.1949180546E-01
  5.1423789236E+03  3.6601141995E+00  4.2679069003E+00  6.9214802221E-02  6.6865931547E-02  4.1954315312E-01
  5.1434657856E+03  3.6611276599E+00  4.2674691481E+00  6.9259150857E-02  6.6907551304E-02  4.1959448561E-01
  5.1445526476E+03  3.6621411868E+00  4.2670315332E+00  6.9303518530E-02  6.6949187445E-02  4.1964580295E-01
  5.1456395096E+03  3.6631547801E+00  4.2665940557E+00  6.9347905242E-02  6.6990839972E-02  4.1969710514E-01
  5.1467263716E+03  3.6641684397E+00  4.2661567154E+00  6.9392310999E-02  6.7032508888E-02  4.1974839218E-01
  5.1478132336E+03  3.6651821657E+00  4.2657195123E+00  6.9436735805E-02  6.7074194195E-02  4.1979966410E-01
  5.1489000956E+03  3.6661959581E+00  4.2652824462E+00  6.9481179662E-02  6.7115895894E-02  4.1985092090E-01
  5.1499869577E+03  3.6672098168E+00  4.2648455172E+00  6.9525642577E-02  6.7157613988E-02  4.1990216257E-01
  5.1510738197E+03  3.6682237419E+00  4.2644087251E+00  6.9570124553E-02  6.7199348478E-02  4.1995338915E-01
  5.1521606817E+03  3.6692377333E+00  4.2639720699E+00  6.9614625593E-02  6.7241099367E-02  4.2000460062E-01
  5.1532475437E+03  3.6702517910E+00  4.2635355515E+00  6.9659145703E-02  6.7282866658E-02  4.2005579701E-01
  5.1543344057E+03  3.6712659150E+00  4.2630991698E+00  6.9703684886E-02  6.7324650351E-02  4.2010697832E-01
  5.1554212677E+03  3.6722801054E+00  4.2626629248E+00  6.9748243146E-02  6.7366450449E-02  4.2015814455E-01
  5.1565081297E+03  3.6732943620E+00  4.2622268163E+00  6.9792820488E-02  6.7408266955E-02  4.2020929572E-01
  5.1575949917E+03  3.6743086849E+00  4.2617908444E+00  6.9837416916E-02  6.7450099869E-02  4.2026043183E-01
  5.1586818538E+03  3.6753230741E+00  4.2613550089E+00  6.9882032433E-02  6.7491949195E-02  4.2031155290E-01
  5.1597687158E+03  3.6763375296E+00  4.2609193098E+00  6.9926667045E-02  6.7533814934E-02  4.2036265893E-01
  5.1608555778E+03  3.6773520513E+00  4.2604837470E+00  6.9971320755E-02  6.7575697088E-02  4.2041374993E-01
  5.1619424398E+03  3.6783666392E+00  4.2600483204E+00  7.0015993567E-02  6.7617595660E-02  4.2046482590E-01
  5.1630293018E+03  3.6793812934E+00  4.2596130300E+00  7.0060685486E-02  6.7659510651E-02  4.2051588687E-01
  5.1641161638E+03  3.6803960138E+00  4.2591778757E+00  7.0105396515E-02  6.7701442064E-02  4.2056693283E-01
  5.1652030258E+03  3.6814108005E+00  4.2587428573E+00  7.0150126659E-02  6.7743389900E-02  4.2061796379E-01
  5.1662898878E+03  3.6824256533E+00  4.2583079750E+00  7.0194875922E-02  6.7785354162E-02  4.2066897976E-01
  5.1673767498E+03  3.6834405724E+00  4.2578732285E+00  7.0239644308E-02  6.7827334851E-02  4.2071998076E-01
  5.1684636119E+03  3.6844555576E+00  4.2574386178E+00  7.0284431822E-02  6.7869331970E-02  4.2077096678E-01
  5.1695504739E+03  3.6854706090E+00  4.2570041428E+00  7.0329238466E-02  6.7911345522E-02  4.2082193784E-01
  5.1706373359E+03  3.6864857266E+00  4.2565698035E+00  7.0374064246E-02  6.7953375506E-02  4.2087289394E-01
  5.1717241979E+03  3.6875009103E+00  4.2561355998E+00  7.0418909166E-02  6.7995421927E-02  4.2092383510E-01
  5.1728110599E+03  3.6885161602E+00  4.2557015316E+00  7.0463773230E-02  6.8037484786E-02  4.2097476132E-01
  5.1738979219E+03  3.6895314762E+00  4.2552675988E+00  7.0508656441E-02  6.8079564085E-02  4.2102567261E-01
  5.1749847839E+03  3.6905468584E+00  4.2548338014E+00  7.0553558805E-02  6.8121659825E-02  4.2107656898E-01
  5.1760716459E+03  3.6915623067E+00  4.2544001394E+00  7.0598480325E-02  6.8163772010E-02  4.2112745044E-01
  5.1771585080E+03  3.6925778211E+00  4.2539666125E+00  7.0643421005E-02  6.8205900641E-02  4.2117831699E-01
  5.1782453700E+03  3.6935934016E+00  4.2535332209E+00  7.0688380850E-02  6.8248045720E-02  4.2122916864E-01
  5.1793322320E+03  3.6946090482E+00  4.2530999643E+00  7.0733359863E-02  6.8290207249E-02  4.2128000541E-01
  5.1804190940E+03  3.6956247608E+00  4.2526668427E+00  7.0778358050E-02  6.8332385230E-02  4.2133082730E-01
  5.1815059560E+03  3.6966405396E+00  4.2522338561E+00  7.0823375413E-02  6.8374579666E-02  4.2138163431E-01
  5.1825928180E+03  3.6976563844E+00  4.2518010044E+00  7.0868411958E-02  6.8416790558E-02  4.2143242646E-01
  5.1836796800E+03  3.6986732816E+00  4.2513707260E+00  7.0913467687E-02  6.8459018879E-02  4.2148320376E-01
  5.1847665420E+03  3.6996921483E+00  4.2509452843E+00  7.0958542606E-02  6.8501265535E-02  4.2153396621E-01
  5.1858534041E+03  3.7007110821E+00  4.2505199743E+00  7.1003636719E-02  6.8543528661E-02  4.2158471382E-01
  5.1869402661E+03  3.7017300828E+00  4.2500947959E+00  7.1048750029E-02  6.8585808257E-02  4.2163544660E-01
  5.1880271281E+03  3.7027491505E+00  4.2496697492E+00  7.1093882542E-02  6.8628104325E-02  4.2168616456E-01
  5.1891139901E+03  3.7037682853E+00  4.2492448339E+00  7.1139034260E-02  6.8670416869E-02  4.2173686770E-01
  5.1902008521E+03  3.7047874870E+00  4.2488200502E+00  7.1184205188E-02  6.8712745889E-02  4.2178755604E-01
  5.1912877141E+03  3.7058067556E+00  4.2483953978E+00  7.1229395331E-02  6.8755091389E-02  4.2183822958E-01
  5.1923745761E+03  3.7068260913E+00  4.2479708768E+00  7.1274604692E-02  6.8797453369E-02  4.2188888833E-01
  5.1934614381E+03  3.7078454939E+00  4.2475464870E+00  7.1319833276E-02  6.8839831832E-02  4.2193953230E-01
  5.1945483001E+03  3.7088649634E+00  4.2471222284E+00  7.1365081087E-02  6.8882226780E-02  4.2199016150E-01
  5.1956351622E+03  3.7098844998E+00  4.2466981009E+00  7.1410348128E-02  6.8924638215E-02  4.2204077593E-01
  5.1967220242E+03  3.7109041032E+00  4.2462741045E+00  7.1455634404E-02  6.8967066139E-02  4.2209137561E-01
  5.1978088862E+03  3.7119237735E+00  4.2458502391E+00  7.1500939920E-02  6.9009510554E-02  4.2214196054E-01
  5.1988957482E+03  3.7129435107E+00  4.2454265046E+00  7.1546264679E-02  6.9051971462E-02  4.2219253072E-01
  5.1999826102E+03  3.7139633148E+00  4.2450029009E+00  7.1591608686E-02  6.9094448865E-02  4.2224308618E-01
  5.2010694722E+03  3.7149831858E+00  4.2445794280E+00  7.1636971944E-02  6.9136942765E-02  4.2229362691E-01
  5.2021563342E+03  3.7160031236E+00  4.2441560859E+00  7.1682354458E-02  6.9179453165E-02  4.2234415292E-01
  5.2032431962E+03  3.7170231283E+00  4.2437328744E+00  7.1727756231E-02  6.9221980065E-02  4.2239466423E-01
  5.2043300583E+03  3.7180431999E+00  4.2433097934E+00  7.1773177269E-02  6.9264523469E-02  4.2244516084E-01
  5.2054169203E+03  3.7190633383E+00  4.2428868430E+00  7.1818617575E-02  6.9307083378E-02  4.2249564276E-01
  5.2065037823E+03  3.7200835436E+00  4.2424640230E+00  7.1864077154E-02  6.9349659795E-02  4.2254610999E-01
  5.2075906443E+03  3.7211038157E+00  4.2420413334E+00  7.1909556009E-02  6.9392252720E-02  4.2259656255E-01
  5.2086775063E+03  3.7221241546E+00  4.2416187741E+00  7.1955054145E-02  6.9434862157E-02  4.2264700044E-01
  5.2097643683E+03  3.7231445603E+00  4.2411963451E+00  7.2000571565E-02  6.9477488107E-02  4.2269742367E-01
  5.2108512303E+03  3.7241650328E+00  4.2407740462E+00  7.2046108274E-02  6.9520130572E-02  4.2274783225E-01
  5.2119380923E+03  3.7251855720E+00  4.2403518774E+00  7.2091664277E-02  6.9562789555E-02  4.2279822619E-01
  5.2130249544E+03  3.7262061781E+00  4.2399298387E+00  7.2137239577E-02  6.9605465057E-02  4.2284860549E-01
  5.2141118164E+03  3.7272268509E+00  4.2395079300E+00  7.2182834178E-02  6.9648157080E-02  4.2289897016E-01
  5.2151986784E+03  3.7282475905E+00  4.2390861511E+00  7.2228448085E-02  6.9690865627E-02  4.2294932022E-01
  5.2162855404E+03  3.7292683969E+00  4.2386645021E+00  7.2274081301E-02  6.9733590699E-02  4.2299965567E-01
  5.2173724024E+03  3.7302892700E+00  4.2382429829E+00  7.2319733832E-02  6.9776332298E-02  4.2304997651E-01
  5.2184592644E+03  3.7313102098E+00  4.2378215934E+00  7.2365405680E-02  6.9819090427E-02  4.2310028276E-01
  5.2195461264E+03  3.7323312163E+00  4.2374003335E+00  7.2411096850E-02  6.9861865087E-02  4.2315057442E-01
  5.2206329884E+03  3.7333522896E+00  4.2369792032E+00  7.2456807347E-02  6.9904656280E-02  4.2320085151E-01
  5.2217198504E+03  3.7343734295E+00  4.2365582023E+00  7.2502537174E-02  6.9947464009E-02  4.2325111402E-01
  5.2228067125E+03  3.7353946362E+00  4.2361373310E+00  7.2548286336E-02  6.9990288275E-02  4.2330136197E-01
  5.2238935745E+03  3.7364159095E+00  4.2357165890E+00  7.2594054837E-02  7.0033129081E-02  4.2335159536E-01
  5.2249804365E+03  3.7374372495E+00  4.2352959763E+00  7.2639842680E-02  7.0075986428E-02  4.2340181421E-01
  5.2260672985E+03  3.7384586561E+00  4.2348754928E+00  7.2685649871E-02  7.0118860318E-02  4.2345201852E-01
  5.2271541605E+03  3.7394801295E+00  4.2344551385E+00  7.2731476412E-02  7.0161750754E-02  4.2350220830E-01
  5.2282410225E+03  3.7405016694E+00  4.2340349133E+00  7.2777322309E-02  7.0204657737E-02  4.2355238356E-01
  5.2293278845E+03  3.7415232760E+00  4.2336148172E+00  7.2823187566E-02  7.0247581270E-02  4.2360254430E-01
  5.2304147465E+03  3.7425455398E+00  4.2331962909E+00  7.2869072186E-02  7.0290521959E-02  4.2365269054E-01
  5.2315016086E+03  3.7435701291E+00  4.2327834014E+00  7.2914976174E-02  7.0333481521E-02  4.2370282227E-01
  5.2325884706E+03  3.7445947859E+00  4.2323706380E+00  7.2960899534E-02  7.0376457645E-02  4.2375293952E-01
  5.2336753326E+03  3.7456195102E+00  4.2319580005E+00  7.3006842269E-02  7.0419450333E-02  4.2380304228E-01
  5.2347621946E+03  3.7466443022E+00  4.2315454889E+00  7.3052804386E-02  7.0462459586E-02  4.2385313057E-01
  5.2358490566E+03  3.7476691616E+00  4.2311331031E+00  7.3098785886E-02  7.0505485407E-02  4.2390320439E-01
  5.2369359186E+03  3.7486940886E+00  4.2307208431E+00  7.3144786775E-02  7.0548527798E-02  4.2395326375E-01
  5.2380227806E+03  3.7497190831E+00  4.2303087088E+00  7.3190807057E-02  7.0591586760E-02  4.2400330866E-01
  5.2391096426E+03  3.7507441452E+00  4.2298967002E+00  7.3236846735E-02  7.0634662296E-02  4.2405333913E-01
  5.2401965047E+03  3.7517692747E+00  4.2294848171E+00  7.3282905815E-02  7.0677754408E-02  4.2410335516E-01
  5.2412833667E+03  3.7527944718E+00  4.2290730596E+00  7.3328984299E-02  7.0720863097E-02  4.2415335676E-01
  5.2423702287E+03  3.7538197363E+00  4.2286614274E+00  7.3375082193E-02  7.0763988366E-02  4.2420334395E-01
  5.2434570907E+03  3.7548450683E+00  4.2282499207E+00  7.3421199500E-02  7.0807130217E-02  4.2425331672E-01
  5.2445439527E+03  3.7558704678E+00  4.2278385393E+00  7.3467336225E-02  7.0850288651E-02  4.2430327508E-01
  5.2456308147E+03  3.7568959347E+00  4.2274272832E+00  7.3513492372E-02  7.0893463671E-02  4.2435321906E-01
  5.2467176767E+03  3.7579214691E+00  4.2270161522E+00  7.3559667944E-02  7.0936655279E-02  4.2440314864E-01
  5.2478045387E+03  3.7589470709E+00  4.2266051464E+00  7.3605862946E-02  7.0979863476E-02  4.2445306384E-01
  5.2488914007E+03  3.7599727401E+00  4.2261942657E+00  7.3652077383E-02  7.1023088264E-02  4.2450296467E-01
  5.2499782628E+03  3.7609984768E+00  4.2257835099E+00  7.3698311258E-02  7.1066329646E-02  4.2455285114E-01
  5.2510651248E+03  3.7620242809E+00  4.2253728791E+00  7.3744564575E-02  7.1109587624E-02  4.2460272324E-01
  5.2521519868E+03  3.7630501523E+00  4.2249623732E+00  7.3790837339E-02  7.1152862199E-02  4.2465258100E-01
  5.2532388488E+03  3.7640760912E+00  4.2245519920E+00  7.3837129554E-02  7.1196153374E-02  4.2470242442E-01
  5.2543257108E+03  3.7651020975E+00  4.2241417356E+00  7.3883441223E-02  7.1239461150E-02  4.2475225351E-01
  5.2554125728E+03  3.7661281711E+00  4.2237316039E+00  7.3929772352E-02  7.1282785529E-02  4.2480206826E-01
  5.2564994348E+03  3.7671543121E+00  4.2233215968E+00  7.3976122944E-02  7.1326126514E-02  4.2485186870E-01
  5.2575862968E+03  3.7681805204E+00  4.2229117143E+00  7.4022493003E-02  7.1369484106E-02  4.2490165483E-01
  5.2586731589E+03  3.7692067961E+00  4.2225019563E+00  7.4068882533E-02  7.1412858308E-02  4.2495142666E-01
  5.2597600209E+03  3.7702331391E+00  4.2220923226E+00  7.4115291540E-02  7.1456249121E-02  4.2500118419E-01
  5.2608468829E+03  3.7712595494E+00  4.2216828134E+00  7.4161720026E-02  7.1499656547E-02  4.2505092744E-01
  5.2619337449E+03  3.7722860271E+00  4.2212734284E+00  7.4208167996E-02  7.1543080588E-02  4.2510065641E-01
  5.2630206069E+03  3.7733125720E+00  4.2208641677E+00  7.4254635454E-02  7.1586521246E-02  4.2515037110E-01
  5.2641074689E+03  3.7743391843E+00  4.2204550312E+00  7.4301122404E-02  7.1629978524E-02  4.2520007153E-01
  5.2651943309E+03  3.7753658638E+00  4.2200460188E+00  7.4347628851E-02  7.1673452423E-02  4.2524975771E-01
  5.2662811929E+03  3.7763926107E+00  4.2196371304E+00  7.4394154798E-02  7.1716942945E-02  4.2529942964E-01
  5.2673680550E+03  3.7774194247E+00  4.2192283660E+00  7.4440700250E-02  7.1760450092E-02  4.2534908733E-01
  5.2684549170E+03  3.7784463061E+00  4.2188197255E+00  7.4487265211E-02  7.1803973866E-02  4.2539873078E-01
  5.2695417790E+03  3.7794732547E+00  4.2184112089E+00  7.4533849685E-02  7.1847514269E-02  4.2544836001E-01
  5.2706286410E+03  3.7805002705E+00  4.2180028160E+00  7.4580453676E-02  7.1891071302E-02  4.2549797502E-01
  5.2717155030E+03  3.7815273536E+00  4.2175945469E+00  7.4627077188E-02  7.1934644969E-02  4.2554757583E-01
  5.2728023650E+03  3.7825545039E+00  4.2171864015E+00  7.4673720226E-02  7.1978235271E-02  4.2559716243E-01
  5.2738892270E+03  3.7835817214E+00  4.2167783797E+00  7.4720382793E-02  7.2021842209E-02  4.2564673483E-01
  5.2749760890E+03  3.7846090060E+00  4.2163704814E+00  7.4767064894E-02  7.2065465786E-02  4.2569629305E-01
  5.2760629510E+03  3.7856363579E+00  4.2159627066E+00  7.4813766533E-02  7.2109106004E-02  4.2574583709E-01
  5.2771498131E+03  3.7866637770E+00  4.2155550552E+00  7.4860487714E-02  7.2152762864E-02  4.2579536696E-01
  5.2782366751E+03  3.7876931817E+00  4.2151521462E+00  7.4907228442E-02  7.2196438421E-02  4.2584488267E-01
  5.2793235371E+03  3.7887235445E+00  4.2147515013E+00  7.4953988719E-02  7.2240131582E-02  4.2589438422E-01
  5.2804103991E+03  3.7897539754E+00  4.2143509768E+00  7.5000768551E-02  7.2283841399E-02  4.2594387162E-01
  5.2814972611E+03  3.7907844744E+00  4.2139505729E+00  7.5047567942E-02  7.2327567872E-02  4.2599334489E-01
  5.2825841231E+03  3.7918150415E+00  4.2135502894E+00  7.5094386895E-02  7.2371311004E-02  4.2604280401E-01
  5.2836709851E+03  3.7928456767E+00  4.2131501262E+00  7.5141225415E-02  7.2415070796E-02  4.2609224902E-01
  5.2847578471E+03  3.7938763799E+00  4.2127500834E+00  7.5188083507E-02  7.2458847252E-02  4.2614167990E-01
  5.2858447092E+03  3.7949071512E+00  4.2123501608E+00  7.5234961173E-02  7.2502640372E-02  4.2619109668E-01
  5.2869315712E+03  3.7959379905E+00  4.2119503583E+00  7.5281858419E-02  7.2546450159E-02  4.2624049935E-01
  5.2880184332E+03  3.7969688978E+00  4.2115506760E+00  7.5328775249E-02  7.2590276615E-02  4.2628988793E-01
  5.2891052952E+03  3.7979998732E+00  4.2111511137E+00  7.5375711666E-02  7.2634119741E-02  4.2633926242E-01
  5.2901921572E+03  3.7990309166E+00  4.2107516714E+00  7.5422667675E-02  7.2677979540E-02  4.2638862283E-01
  5.2912790192E+03  3.8000620280E+00  4.2103523491E+00  7.5469643280E-02  7.2721856013E-02  4.2643796917E-01
  5.2923658812E+03  3.8010932074E+00  4.2099531466E+00  7.5516638485E-02  7.2765749162E-02  4.2648730144E-01
  5.2934527432E+03  3.8021244548E+00  4.2095540640E+00  7.5563653295E-02  7.2809658990E-02  4.2653661966E-01
