#[MATERIAL DEFINITION FOR MC-GPU: interaction mean free path and sampling data from PENELOPE 2006]
#[MATERIAL NAME]
# POLYMETHYL METHACRALATE (LUCITE, PERSPEX, PLEXIGLASS)  (224)  
#[NOMINAL DENSITY (g/cm^3)]
#   1.19000000
#[NUMBER OF DATA VALUES]
#  25005
#[MEAN FREE PATHS (cm) (ie, average distance between interactions)]
#[Energy (eV)     | Rayleigh        | Compton         | Photoelectric   | TOTAL (+pair prod) (cm) | Rayleigh: max cumul prob F^2]
  5.0000000000E+03  1.8587985301E+00  6.4150261066E+00  3.2009224338E-02  3.1313742662E-02  2.2405542981E-03
  5.0057988402E+03  1.8611382742E+00  6.4123315890E+00  3.2123471379E-02  3.1423673690E-02  2.2423244318E-03
  5.0115976805E+03  1.8634782494E+00  6.4096413209E+00  3.2237993101E-02  3.1533857434E-02  2.2440957628E-03
  5.0173965207E+03  1.8658184556E+00  6.4069552906E+00  3.2352789846E-02  3.1644294147E-02  2.2458683294E-03
  5.0231953609E+03  1.8681588924E+00  6.4042734865E+00  3.2467861955E-02  3.1754984082E-02  2.2476421896E-03
  5.0289942012E+03  1.8704995597E+00  6.4015958972E+00  3.2583209769E-02  3.1865927493E-02  2.2494174081E-03
  5.0347930414E+03  1.8728404572E+00  6.3989225111E+00  3.2698833628E-02  3.1977124632E-02  2.2511940494E-03
  5.0405918816E+03  1.8751815846E+00  6.3962533168E+00  3.2814733874E-02  3.2088575752E-02  2.2529721787E-03
  5.0463907219E+03  1.8775229417E+00  6.3935883030E+00  3.2930910849E-02  3.2200281105E-02  2.2547518614E-03
  5.0521895621E+03  1.8798645283E+00  6.3909274582E+00  3.3047364893E-02  3.2312240944E-02  2.2565331632E-03
  5.0579884023E+03  1.8822063441E+00  6.3882707713E+00  3.3164096348E-02  3.2424455520E-02  2.2583161503E-03
  5.0637872426E+03  1.8845483889E+00  6.3856182309E+00  3.3281105554E-02  3.2536925085E-02  2.2601008893E-03
  5.0695860828E+03  1.8868906624E+00  6.3829698259E+00  3.3398392854E-02  3.2649649891E-02  2.2618874470E-03
  5.0753849230E+03  1.8892331645E+00  6.3803255450E+00  3.3515958589E-02  3.2762630188E-02  2.2636758914E-03
  5.0811837632E+03  1.8915758948E+00  6.3776853772E+00  3.3633803099E-02  3.2875866229E-02  2.2654663041E-03
  5.0869826035E+03  1.8939116266E+00  6.3750543419E+00  3.3751926726E-02  3.2989356205E-02  2.2672587806E-03
  5.0927814437E+03  1.8962049630E+00  6.3724570039E+00  3.3870329813E-02  3.3103090216E-02  2.2690534176E-03
  5.0985802839E+03  1.8984984619E+00  6.3698636781E+00  3.3989012699E-02  3.3217080580E-02  2.2708503125E-03
  5.1043791242E+03  1.9007921231E+00  6.3672743537E+00  3.4107975727E-02  3.3331327546E-02  2.2726495633E-03
  5.1101779644E+03  1.9030859464E+00  6.3646890199E+00  3.4227219238E-02  3.3445831361E-02  2.2744512689E-03
  5.1159768046E+03  1.9053799316E+00  6.3621076662E+00  3.4346743573E-02  3.3560592276E-02  2.2762555291E-03
  5.1217756449E+03  1.9076740786E+00  6.3595302820E+00  3.4466549075E-02  3.3675610539E-02  2.2780624444E-03
  5.1275744851E+03  1.9099683872E+00  6.3569568565E+00  3.4586636084E-02  3.3790886398E-02  2.2798721163E-03
  5.1333733253E+03  1.9122628572E+00  6.3543873793E+00  3.4707004943E-02  3.3906420101E-02  2.2816846473E-03
  5.1391721656E+03  1.9145574885E+00  6.3518218398E+00  3.4827655992E-02  3.4022211897E-02  2.2835001475E-03
  5.1449710058E+03  1.9168522809E+00  6.3492602276E+00  3.4948589574E-02  3.4138262032E-02  2.2853187436E-03
  5.1507698460E+03  1.9191472342E+00  6.3467025323E+00  3.5069806029E-02  3.4254570755E-02  2.2871405651E-03
  5.1565686863E+03  1.9214423482E+00  6.3441487435E+00  3.5191305701E-02  3.4371138311E-02  2.2889657426E-03
  5.1623675265E+03  1.9237376228E+00  6.3415988508E+00  3.5313088931E-02  3.4487964950E-02  2.2907944084E-03
  5.1681663667E+03  1.9260330578E+00  6.3390528439E+00  3.5435156059E-02  3.4605050916E-02  2.2926266961E-03
  5.1739652070E+03  1.9283277910E+00  6.3365115568E+00  3.5557507429E-02  3.4722396202E-02  2.2944627411E-03
  5.1797640472E+03  1.9305894500E+00  6.3340066268E+00  3.5680143382E-02  3.4839991467E-02  2.2963026801E-03
  5.1855628874E+03  1.9328512267E+00  6.3315054882E+00  3.5803064259E-02  3.4957846700E-02  2.2981466517E-03
  5.1913617277E+03  1.9351131209E+00  6.3290081309E+00  3.5926270403E-02  3.5075962146E-02  2.2999947964E-03
  5.1971605679E+03  1.9373751324E+00  6.3265145450E+00  3.6049762155E-02  3.5194338051E-02  2.3018472824E-03
  5.2029594081E+03  1.9396372612E+00  6.3240247207E+00  3.6173539858E-02  3.5312974659E-02  2.3037042967E-03
  5.2087582484E+03  1.9418995070E+00  6.3215386480E+00  3.6297603853E-02  3.5431872214E-02  2.3055659722E-03
  5.2145570886E+03  1.9441618699E+00  6.3190563172E+00  3.6421954483E-02  3.5551030961E-02  2.3074324427E-03
  5.2203559288E+03  1.9464243496E+00  6.3165777185E+00  3.6546592088E-02  3.5670451144E-02  2.3093038438E-03
  5.2261547690E+03  1.9486869460E+00  6.3141028421E+00  3.6671517012E-02  3.5790133006E-02  2.3111803129E-03
  5.2319536093E+03  1.9509496590E+00  6.3116316783E+00  3.6796729597E-02  3.5910076792E-02  2.3130619898E-03
  5.2377524495E+03  1.9532124886E+00  6.3091642175E+00  3.6922230183E-02  3.6030282743E-02  2.3149490161E-03
  5.2435512897E+03  1.9554754345E+00  6.3067004499E+00  3.7048019114E-02  3.6150751103E-02  2.3168415361E-03
  5.2493501300E+03  1.9577384966E+00  6.3042403661E+00  3.7174096732E-02  3.6271482116E-02  2.3187396960E-03
  5.2551489702E+03  1.9600016748E+00  6.3017839564E+00  3.7300463379E-02  3.6392476022E-02  2.3206436373E-03
  5.2609478104E+03  1.9622649691E+00  6.2993312112E+00  3.7427119396E-02  3.6513733065E-02  2.3225534382E-03
  5.2667466507E+03  1.9645165720E+00  6.2969028115E+00  3.7554065126E-02  3.6635250081E-02  2.3244691443E-03
  5.2725454909E+03  1.9667617710E+00  6.2944894014E+00  3.7681300912E-02  3.6757028802E-02  2.3263908010E-03
  5.2783443311E+03  1.9690070638E+00  6.2920795675E+00  3.7808827096E-02  3.6879071335E-02  2.3283184548E-03
  5.2841431714E+03  1.9712524503E+00  6.2896733008E+00  3.7936644019E-02  3.7001377922E-02  2.3302521522E-03
  5.2899420116E+03  1.9734979304E+00  6.2872705920E+00  3.8064752024E-02  3.7123948803E-02  2.3321919408E-03
  5.2957408518E+03  1.9757435039E+00  6.2848714319E+00  3.8193151454E-02  3.7246784219E-02  2.3341378683E-03
  5.3015396921E+03  1.9779891709E+00  6.2824758115E+00  3.8321842651E-02  3.7369884411E-02  2.3360899832E-03
  5.3073385323E+03  1.9802349312E+00  6.2800837216E+00  3.8450825957E-02  3.7493249617E-02  2.3380483346E-03
  5.3131373725E+03  1.9824807847E+00  6.2776951532E+00  3.8580101715E-02  3.7616880078E-02  2.3400129639E-03
  5.3189362128E+03  1.9847267314E+00  6.2753100973E+00  3.8709670266E-02  3.7740776033E-02  2.3419838501E-03
  5.3247350530E+03  1.9869727710E+00  6.2729285449E+00  3.8839531954E-02  3.7864937722E-02  2.3439609441E-03
  5.3305338932E+03  1.9892189035E+00  6.2705504870E+00  3.8969687122E-02  3.7989365383E-02  2.3459441959E-03
  5.3363327335E+03  1.9914651289E+00  6.2681759148E+00  3.9100136110E-02  3.8114059256E-02  2.3479335540E-03
  5.3421315737E+03  1.9937114470E+00  6.2658048193E+00  3.9230879263E-02  3.8239019578E-02  2.3499289657E-03
  5.3479304139E+03  1.9959578577E+00  6.2634371917E+00  3.9361916923E-02  3.8364246588E-02  2.3519303771E-03
  5.3537292541E+03  1.9982043610E+00  6.2610730231E+00  3.9493249431E-02  3.8489740523E-02  2.3539377329E-03
  5.3595280944E+03  2.0004484525E+00  6.2587431354E+00  3.9624877132E-02  3.8615501863E-02  2.3559509766E-03
  5.3653269346E+03  2.0026926319E+00  6.2564166533E+00  3.9756800367E-02  3.8741530610E-02  2.3579700505E-03
  5.3711257748E+03  2.0049369005E+00  6.2540935476E+00  3.9889019479E-02  3.8867827001E-02  2.3599948859E-03
  5.3769246151E+03  2.0071812584E+00  6.2517738098E+00  4.0021534810E-02  3.8994391273E-02  2.3620253538E-03
  5.3827234553E+03  2.0094257055E+00  6.2494574316E+00  4.0154346705E-02  3.9121223662E-02  2.3640613023E-03
  5.3885222955E+03  2.0116702416E+00  6.2471444043E+00  4.0287455504E-02  3.9248324406E-02  2.3661025768E-03
  5.3943211358E+03  2.0139148667E+00  6.2448347195E+00  4.0420861552E-02  3.9375693740E-02  2.3681490199E-03
  5.4001199760E+03  2.0161595806E+00  6.2425283688E+00  4.0554565191E-02  3.9503331901E-02  2.3702004718E-03
  5.4059188162E+03  2.0184043833E+00  6.2402253439E+00  4.0688566763E-02  3.9631239123E-02  2.3722567704E-03
  5.4117176565E+03  2.0206492747E+00  6.2379256363E+00  4.0822866611E-02  3.9759415644E-02  2.3743177508E-03
  5.4175164967E+03  2.0228942547E+00  6.2356292378E+00  4.0957465079E-02  3.9887861696E-02  2.3763832462E-03
  5.4233153369E+03  2.0251393231E+00  6.2333361400E+00  4.1092362509E-02  4.0016577517E-02  2.3784530873E-03
  5.4291141772E+03  2.0273844800E+00  6.2310463347E+00  4.1227559245E-02  4.0145563339E-02  2.3805270716E-03
  5.4349130174E+03  2.0296297252E+00  6.2287598137E+00  4.1363055628E-02  4.0274819398E-02  2.3826049446E-03
  5.4407118576E+03  2.0318750587E+00  6.2264765687E+00  4.1498852003E-02  4.0404345928E-02  2.3846864555E-03
  5.4465106979E+03  2.0341215998E+00  6.2241990885E+00  4.1634948712E-02  4.0534143712E-02  2.3867713505E-03
  5.4523095381E+03  2.0363804319E+00  6.2219520370E+00  4.1771346097E-02  4.0664218467E-02  2.3888593736E-03
  5.4581083783E+03  2.0386393672E+00  6.2197081840E+00  4.1908044503E-02  4.0794564459E-02  2.3909502664E-03
  5.4639072186E+03  2.0408984057E+00  6.2174675217E+00  4.2045044272E-02  4.0925181923E-02  2.3930437686E-03
  5.4697060588E+03  2.0431575472E+00  6.2152300420E+00  4.2182345748E-02  4.1056071092E-02  2.3951396179E-03
  5.4755048990E+03  2.0454167917E+00  6.2129957370E+00  4.2319949273E-02  4.1187232198E-02  2.3972375505E-03
  5.4813037393E+03  2.0476761390E+00  6.2107645991E+00  4.2458299377E-02  4.1319086144E-02  2.3993372985E-03
  5.4871025795E+03  2.0499355890E+00  6.2085366202E+00  4.2597143300E-02  4.1451393322E-02  2.4014385815E-03
  5.4929014197E+03  2.0521951417E+00  6.2063117926E+00  4.2736293816E-02  4.1583976299E-02  2.4035412032E-03
  5.4987002599E+03  2.0544547968E+00  6.2040901085E+00  4.2875751277E-02  4.1716835313E-02  2.4056449876E-03
  5.5044991002E+03  2.0567145544E+00  6.2018715601E+00  4.3015516035E-02  4.1849970602E-02  2.4077497577E-03
  5.5102979404E+03  2.0589744143E+00  6.1996561398E+00  4.3155588442E-02  4.1983382405E-02  2.4098553364E-03
  5.5160967806E+03  2.0612343763E+00  6.1974438399E+00  4.3295968851E-02  4.2117070959E-02  2.4119615461E-03
  5.5218956209E+03  2.0634944405E+00  6.1952346526E+00  4.3436657613E-02  4.2251036501E-02  2.4140682091E-03
  5.5276944611E+03  2.0657546067E+00  6.1930285704E+00  4.3577655080E-02  4.2385279270E-02  2.4161751472E-03
  5.5334933013E+03  2.0680148748E+00  6.1908255855E+00  4.3718961606E-02  4.2519799500E-02  2.4182821826E-03
  5.5392921416E+03  2.0702752447E+00  6.1886256905E+00  4.3860577541E-02  4.2654597430E-02  2.4203891456E-03
  5.5450909818E+03  2.0725618077E+00  6.1864543993E+00  4.4002503239E-02  4.2789685639E-02  2.4224959375E-03
  5.5508898220E+03  2.0748515820E+00  6.1842891463E+00  4.4144739052E-02  4.2925053601E-02  2.4246024930E-03
  5.5566886623E+03  2.0771414913E+00  6.1821269108E+00  4.4287285332E-02  4.3060700106E-02  2.4267087474E-03
  5.5624875025E+03  2.0794315354E+00  6.1799676853E+00  4.4430142431E-02  4.3196625389E-02  2.4288146359E-03
  5.5682863427E+03  2.0817217142E+00  6.1778114626E+00  4.4573310702E-02  4.3332829687E-02  2.4309200936E-03
  5.5740851830E+03  2.0840120277E+00  6.1756582354E+00  4.4716790498E-02  4.3469313234E-02  2.4330250561E-03
  5.5798840232E+03  2.0863024756E+00  6.1735079964E+00  4.4860582170E-02  4.3606076268E-02  2.4351294588E-03
  5.5856828634E+03  2.0885930578E+00  6.1713607384E+00  4.5004686072E-02  4.3743119022E-02  2.4372332372E-03
  5.5914817037E+03  2.0908837742E+00  6.1692164541E+00  4.5149102556E-02  4.3880441731E-02  2.4393363304E-03
  5.5972805439E+03  2.0931746246E+00  6.1670751363E+00  4.5293831975E-02  4.4018044631E-02  2.4414387577E-03
  5.6030793841E+03  2.0954656090E+00  6.1649367779E+00  4.5438874680E-02  4.4155927956E-02  2.4435404661E-03
  5.6088782244E+03  2.0977567272E+00  6.1628013718E+00  4.5584231026E-02  4.4294091940E-02  2.4456413574E-03
  5.6146770646E+03  2.1000479790E+00  6.1606689107E+00  4.5729901363E-02  4.4432536816E-02  2.4477413338E-03
  5.6204759048E+03  2.1023393644E+00  6.1585393876E+00  4.5875886046E-02  4.4571262818E-02  2.4498402976E-03
  5.6262747451E+03  2.1046308832E+00  6.1564127955E+00  4.6022185427E-02  4.4710270180E-02  2.4519381516E-03
  5.6320735853E+03  2.1069225353E+00  6.1542891272E+00  4.6168799858E-02  4.4849559134E-02  2.4540347987E-03
  5.6378724255E+03  2.1092334979E+00  6.1521800598E+00  4.6315729693E-02  4.4989139263E-02  2.4561301424E-03
  5.6436712657E+03  2.1115704936E+00  6.1500896257E+00  4.6462975284E-02  4.5129014205E-02  2.4582240863E-03
  5.6494701060E+03  2.1139076746E+00  6.1480020475E+00  4.6610536985E-02  4.5269171645E-02  2.4603165269E-03
  5.6552689462E+03  2.1162450407E+00  6.1459173185E+00  4.6758415147E-02  4.5409611815E-02  2.4624072959E-03
  5.6610677864E+03  2.1185825919E+00  6.1438354320E+00  4.6906610124E-02  4.5550334948E-02  2.4644961940E-03
  5.6668666267E+03  2.1209203279E+00  6.1417563810E+00  4.7055122269E-02  4.5691341276E-02  2.4665830227E-03
  5.6726654669E+03  2.1232582485E+00  6.1396801589E+00  4.7203951936E-02  4.5832631032E-02  2.4686675848E-03
  5.6784643071E+03  2.1255963536E+00  6.1376067588E+00  4.7353099475E-02  4.5974204447E-02  2.4707496845E-03
  5.6842631474E+03  2.1279346430E+00  6.1355361742E+00  4.7502565242E-02  4.6116061753E-02  2.4728291274E-03
  5.6900619876E+03  2.1302731165E+00  6.1334683983E+00  4.7652349589E-02  4.6258203181E-02  2.4749057205E-03
  5.6958608278E+03  2.1326117740E+00  6.1314034245E+00  4.7802452869E-02  4.6400628963E-02  2.4769792729E-03
  5.7016596681E+03  2.1349506152E+00  6.1293412460E+00  4.7952875435E-02  4.6543339329E-02  2.4790495792E-03
  5.7074585083E+03  2.1372896401E+00  6.1272818563E+00  4.8103617641E-02  4.6686334509E-02  2.4811163400E-03
  5.7132573485E+03  2.1396288484E+00  6.1252252488E+00  4.8254679839E-02  4.6829614734E-02  2.4831793121E-03
  5.7190561888E+03  2.1419682399E+00  6.1231714169E+00  4.8406062383E-02  4.6973180234E-02  2.4852382694E-03
  5.7248550290E+03  2.1443078146E+00  6.1211203540E+00  4.8557765626E-02  4.7117031239E-02  2.4872929885E-03
  5.7306538692E+03  2.1466475721E+00  6.1190720537E+00  4.8709789921E-02  4.7261167977E-02  2.4893432491E-03
  5.7364527095E+03  2.1490285643E+00  6.1170442613E+00  4.8862135623E-02  4.7405611720E-02  2.4913888335E-03
  5.7422515497E+03  2.1514297282E+00  6.1150277989E+00  4.9014803083E-02  4.7550352109E-02  2.4934295276E-03
  5.7480503899E+03  2.1538311473E+00  6.1130140356E+00  4.9167792655E-02  4.7695379206E-02  2.4954651205E-03
  5.7538492302E+03  2.1562328214E+00  6.1110029650E+00  4.9321104694E-02  4.7840693239E-02  2.4974954048E-03
  5.7596480704E+03  2.1586347502E+00  6.1089945808E+00  4.9474739551E-02  4.7986294439E-02  2.4995201919E-03
  5.7654469106E+03  2.1610369336E+00  6.1069888766E+00  4.9628697582E-02  4.8132183034E-02  2.5015393274E-03
  5.7712457508E+03  2.1634393712E+00  6.1049858463E+00  4.9782979139E-02  4.8278359254E-02  2.5035526634E-03
  5.7770445911E+03  2.1658420629E+00  6.1029854836E+00  4.9937584575E-02  4.8424823327E-02  2.5055600546E-03
  5.7828434313E+03  2.1682450085E+00  6.1009877822E+00  5.0092514245E-02  4.8571575482E-02  2.5075613587E-03
  5.7886422715E+03  2.1706482077E+00  6.0989927360E+00  5.0247768501E-02  4.8718615946E-02  2.5095564365E-03
  5.7944411118E+03  2.1730516603E+00  6.0970003387E+00  5.0403347699E-02  4.8865944947E-02  2.5115451514E-03
  5.8002399520E+03  2.1754553660E+00  6.0950105842E+00  5.0559252190E-02  4.9013562713E-02  2.5135273702E-03
  5.8060387922E+03  2.1778593246E+00  6.0930234665E+00  5.0715482329E-02  4.9161469471E-02  2.5155029626E-03
  5.8118376325E+03  2.1802635360E+00  6.0910389792E+00  5.0872038470E-02  4.9309665448E-02  2.5174718109E-03
  5.8176364727E+03  2.1826679998E+00  6.0890571164E+00  5.1028920966E-02  4.9458150871E-02  2.5194338365E-03
  5.8234353129E+03  2.1850727159E+00  6.0870778719E+00  5.1186130172E-02  4.9606925965E-02  2.5213889707E-03
  5.8292341532E+03  2.1874776840E+00  6.0851012398E+00  5.1343666440E-02  4.9755990957E-02  2.5233371468E-03
  5.8350329934E+03  2.1899315491E+00  6.0831432248E+00  5.1501530125E-02  4.9905372413E-02  2.5252782997E-03
  5.8408318336E+03  2.1924140895E+00  6.0811971058E+00  5.1659721580E-02  5.0055059869E-02  2.5272123667E-03
  5.8466306739E+03  2.1948969765E+00  6.0792535396E+00  5.1818241160E-02  5.0205038272E-02  2.5291392866E-03
  5.8524295141E+03  2.1973802098E+00  6.0773125205E+00  5.1977089218E-02  5.0355307849E-02  2.5310590005E-03
  5.8582283543E+03  2.1998637891E+00  6.0753740424E+00  5.2136266109E-02  5.0505868825E-02  2.5329714510E-03
  5.8640271946E+03  2.2023477141E+00  6.0734380997E+00  5.2295772186E-02  5.0656721428E-02  2.5348765916E-03
  5.8698260348E+03  2.2048319845E+00  6.0715046864E+00  5.2455607803E-02  5.0807865883E-02  2.5367744187E-03
  5.8756248750E+03  2.2073166001E+00  6.0695737967E+00  5.2615773315E-02  5.0959302415E-02  2.5386649413E-03
  5.8814237153E+03  2.2098015604E+00  6.0676454249E+00  5.2776269075E-02  5.1111031251E-02  2.5405481685E-03
  5.8872225555E+03  2.2122868653E+00  6.0657195653E+00  5.2937095438E-02  5.1263052615E-02  2.5424241099E-03
  5.8930213957E+03  2.2147725144E+00  6.0637962120E+00  5.3098252757E-02  5.1415366731E-02  2.5442927757E-03
  5.8988202360E+03  2.2172585075E+00  6.0618753594E+00  5.3259741388E-02  5.1567973826E-02  2.5461541762E-03
  5.9046190762E+03  2.2197448442E+00  6.0599570017E+00  5.3421561683E-02  5.1720874122E-02  2.5480083222E-03
  5.9104179164E+03  2.2222315243E+00  6.0580411333E+00  5.3583713998E-02  5.1874067844E-02  2.5498552251E-03
  5.9162167566E+03  2.2247185474E+00  6.0561277485E+00  5.3746198686E-02  5.2027555215E-02  2.5516949082E-03
  5.9220155969E+03  2.2272059134E+00  6.0542168416E+00  5.3909016101E-02  5.2181336459E-02  2.5535274429E-03
  5.9278144371E+03  2.2296936218E+00  6.0523084070E+00  5.4072166599E-02  5.2335411798E-02  2.5553529109E-03
  5.9336132773E+03  2.2322092333E+00  6.0504096640E+00  5.4235650534E-02  5.2489797240E-02  2.5571713931E-03
  5.9394121176E+03  2.2347905988E+00  6.0485304836E+00  5.4399468259E-02  5.2644514937E-02  2.5589829687E-03
  5.9452109578E+03  2.2373724260E+00  6.0466537199E+00  5.4563620129E-02  5.2799527858E-02  2.5607877159E-03
  5.9510097980E+03  2.2399547146E+00  6.0447793673E+00  5.4728106499E-02  5.2954836228E-02  2.5625857117E-03
  5.9568086383E+03  2.2425374641E+00  6.0429074204E+00  5.4892927723E-02  5.3110440272E-02  2.5643770320E-03
  5.9626074785E+03  2.2451206743E+00  6.0410378738E+00  5.5058084155E-02  5.3266340212E-02  2.5661617519E-03
  5.9684063187E+03  2.2477043448E+00  6.0391707221E+00  5.5223576150E-02  5.3422536271E-02  2.5679399753E-03
  5.9742051590E+03  2.2502884751E+00  6.0373059598E+00  5.5389404064E-02  5.3579028674E-02  2.5697118116E-03
  5.9800039992E+03  2.2528730650E+00  6.0354435817E+00  5.5555568249E-02  5.3735817642E-02  2.5714773603E-03
  5.9858028394E+03  2.2554581140E+00  6.0335835823E+00  5.5722069061E-02  5.3892903398E-02  2.5732367192E-03
  5.9916016797E+03  2.2580436218E+00  6.0317259563E+00  5.5888906854E-02  5.4050286165E-02  2.5749899845E-03
  5.9974005199E+03  2.2606295881E+00  6.0298706984E+00  5.6056081984E-02  5.4207966164E-02  2.5767372508E-03
  6.0031993601E+03  2.2632160124E+00  6.0280178033E+00  5.6224142829E-02  5.4366456026E-02  2.5784786111E-03
  6.0089982004E+03  2.2658028945E+00  6.0261672657E+00  5.6392990838E-02  5.4525663279E-02  2.5802141573E-03
  6.0147970406E+03  2.2683902339E+00  6.0243190803E+00  5.6562182213E-02  5.4685172793E-02  2.5819439794E-03
  6.0205958808E+03  2.2709780303E+00  6.0224732419E+00  5.6731717322E-02  5.4844984798E-02  2.5836681662E-03
  6.0263947211E+03  2.2735662833E+00  6.0206297452E+00  5.6901596530E-02  5.5005099521E-02  2.5853868053E-03
  6.0321935613E+03  2.2761549927E+00  6.0187885851E+00  5.7071820203E-02  5.5165517191E-02  2.5870999828E-03
  6.0379924015E+03  2.2788082130E+00  6.0169652437E+00  5.7242388706E-02  5.5326277103E-02  2.5888077834E-03
  6.0437912418E+03  2.2814945980E+00  6.0151520802E+00  5.7413302407E-02  5.5487360715E-02  2.5905102908E-03
  6.0495900820E+03  2.2841815691E+00  6.0133412012E+00  5.7584561671E-02  5.5648748457E-02  2.5922075873E-03
  6.0553889222E+03  2.2868691258E+00  6.0115326015E+00  5.7756166864E-02  5.5810440558E-02  2.5938997540E-03
  6.0611877624E+03  2.2895572677E+00  6.0097262762E+00  5.7928118353E-02  5.5972437248E-02  2.5955868709E-03
  6.0669866027E+03  2.2922459942E+00  6.0079222202E+00  5.8100416503E-02  5.6134738754E-02  2.5972690172E-03
  6.0727854429E+03  2.2949353051E+00  6.0061204284E+00  5.8273061681E-02  5.6297345305E-02  2.5989462748E-03
  6.0785842831E+03  2.2976251999E+00  6.0043208960E+00  5.8446054253E-02  5.6460257130E-02  2.6006187263E-03
  6.0843831234E+03  2.3003156781E+00  6.0025236178E+00  5.8619394585E-02  5.6623474455E-02  2.6022864531E-03
  6.0901819636E+03  2.3030067393E+00  6.0007285890E+00  5.8793083044E-02  5.6786997508E-02  2.6039495357E-03
  6.0959808038E+03  2.3056983830E+00  5.9989358045E+00  5.8967119997E-02  5.6950826517E-02  2.6056080531E-03
  6.1017796441E+03  2.3083906090E+00  5.9971452595E+00  5.9141505809E-02  5.7114961708E-02  2.6072620835E-03
  6.1075784843E+03  2.3110834166E+00  5.9953569489E+00  5.9316240846E-02  5.7279403308E-02  2.6089117038E-03
  6.1133773245E+03  2.3137768056E+00  5.9935708680E+00  5.9491325476E-02  5.7444151543E-02  2.6105569902E-03
  6.1191761648E+03  2.3164707754E+00  5.9917870119E+00  5.9666760065E-02  5.7609206638E-02  2.6121980176E-03
  6.1249750050E+03  2.3191653257E+00  5.9900053755E+00  5.9842544980E-02  5.7774568821E-02  2.6138348599E-03
  6.1307738452E+03  2.3218604560E+00  5.9882259542E+00  6.0018680586E-02  5.7940238315E-02  2.6154675903E-03
  6.1365726855E+03  2.3245561658E+00  5.9864487429E+00  6.0195167252E-02  5.8106215346E-02  2.6170962809E-03
  6.1423715257E+03  2.3273113237E+00  5.9846899766E+00  6.0372005342E-02  5.8272538587E-02  2.6187210029E-03
  6.1481703659E+03  2.3300895152E+00  5.9829395484E+00  6.0549195225E-02  5.8439184792E-02  2.6203418267E-03
  6.1539692062E+03  2.3328683993E+00  5.9811912816E+00  6.0726737266E-02  5.8606139648E-02  2.6219588216E-03
  6.1597680464E+03  2.3356479756E+00  5.9794451715E+00  6.0904631833E-02  5.8773403380E-02  2.6235720564E-03
  6.1655668866E+03  2.3384282435E+00  5.9777012135E+00  6.1082879292E-02  5.8940976214E-02  2.6251815989E-03
  6.1713657269E+03  2.3412092026E+00  5.9759594029E+00  6.1261480010E-02  5.9108858376E-02  2.6267875161E-03
  6.1771645671E+03  2.3439908525E+00  5.9742197350E+00  6.1440434355E-02  5.9277050090E-02  2.6283898742E-03
  6.1829634073E+03  2.3467731925E+00  5.9724822052E+00  6.1619742692E-02  5.9445551581E-02  2.6299887387E-03
  6.1887622476E+03  2.3495562224E+00  5.9707468088E+00  6.1799405389E-02  5.9614363074E-02  2.6315841745E-03
  6.1945610878E+03  2.3523399415E+00  5.9690135413E+00  6.1979422813E-02  5.9783484793E-02  2.6331762456E-03
  6.2003599280E+03  2.3551243494E+00  5.9672823980E+00  6.2159795330E-02  5.9952916961E-02  2.6347650154E-03
  6.2061587682E+03  2.3579094457E+00  5.9655533743E+00  6.2340523309E-02  6.0122659802E-02  2.6363505465E-03
  6.2119576085E+03  2.3606952298E+00  5.9638264657E+00  6.2521607115E-02  6.0292713540E-02  2.6379329009E-03
  6.2177564487E+03  2.3634817013E+00  5.9621016677E+00  6.2703047116E-02  6.0463078397E-02  2.6395121401E-03
  6.2235552889E+03  2.3662688597E+00  5.9603789756E+00  6.2884843680E-02  6.0633754596E-02  2.6410883249E-03
  6.2293541292E+03  2.3690567046E+00  5.9586583849E+00  6.3066997173E-02  6.0804742360E-02  2.6426615153E-03
  6.2351529694E+03  2.3718452354E+00  5.9569398912E+00  6.3249507963E-02  6.0976041910E-02  2.6442317711E-03
  6.2409518096E+03  2.3746344518E+00  5.9552234899E+00  6.3432376416E-02  6.1147653468E-02  2.6457991511E-03
  6.2467506499E+03  2.3774549306E+00  5.9535194351E+00  6.3615602901E-02  6.1319598686E-02  2.6473637139E-03
  6.2525494901E+03  2.3803096100E+00  5.9518286614E+00  6.3799187784E-02  6.1491880063E-02  2.6489255173E-03
  6.2583483303E+03  2.3831650660E+00  5.9501399346E+00  6.3983131433E-02  6.1664474477E-02  2.6504846187E-03
  6.2641471706E+03  2.3860212981E+00  5.9484532502E+00  6.4167434215E-02  6.1837382149E-02  2.6520410754E-03
  6.2699460108E+03  2.3888783058E+00  5.9467686040E+00  6.4352096498E-02  6.2010603300E-02  2.6535949463E-03
  6.2757448510E+03  2.3917360886E+00  5.9450859915E+00  6.4537118649E-02  6.2184138154E-02  2.6551462865E-03
  6.2815436913E+03  2.3945946460E+00  5.9434054086E+00  6.4722501035E-02  6.2357986930E-02  2.6566951492E-03
  6.2873425315E+03  2.3974539775E+00  5.9417268507E+00  6.4908244025E-02  6.2532149850E-02  2.6582415872E-03
  6.2931413717E+03  2.4003140826E+00  5.9400503137E+00  6.5094347985E-02  6.2706627135E-02  2.6597856526E-03
  6.2989402120E+03  2.4031749608E+00  5.9383757933E+00  6.5280813284E-02  6.2881419005E-02  2.6613273974E-03
  6.3047390522E+03  2.4060366115E+00  5.9367032851E+00  6.5467640288E-02  6.3056525680E-02  2.6628668730E-03
  6.3105378924E+03  2.4088990343E+00  5.9350327849E+00  6.5654829366E-02  6.3231947380E-02  2.6644041303E-03
  6.3163367327E+03  2.4117622287E+00  5.9333642885E+00  6.5842380886E-02  6.3407684325E-02  2.6659392198E-03
  6.3221355729E+03  2.4146261942E+00  5.9316977915E+00  6.6030295214E-02  6.3583736734E-02  2.6674721919E-03
  6.3279344131E+03  2.4174909302E+00  5.9300332899E+00  6.6218572720E-02  6.3760104825E-02  2.6690030963E-03
  6.3337332533E+03  2.4203564364E+00  5.9283707793E+00  6.6407213770E-02  6.3936788818E-02  2.6705319824E-03
  6.3395320936E+03  2.4232227121E+00  5.9267102556E+00  6.6596218732E-02  6.4113788930E-02  2.6720588993E-03
  6.3453309338E+03  2.4260897568E+00  5.9250517145E+00  6.6785587975E-02  6.4291105380E-02  2.6735838957E-03
  6.3511297740E+03  2.4289575702E+00  5.9233951520E+00  6.6975321866E-02  6.4468738385E-02  2.6751070201E-03
  6.3569286143E+03  2.4318689400E+00  5.9217594065E+00  6.7165420773E-02  6.4646720646E-02  2.6766283204E-03
  6.3627274545E+03  2.4347850742E+00  5.9201273335E+00  6.7355885065E-02  6.4825023151E-02  2.6781478447E-03
  6.3685262947E+03  2.4377020439E+00  5.9184971964E+00  6.7546715108E-02  6.5003643146E-02  2.6796656396E-03
  6.3743251350E+03  2.4406198486E+00  5.9168689913E+00  6.7737911272E-02  6.5182580848E-02  2.6811817477E-03
  6.3801239752E+03  2.4435384879E+00  5.9152427139E+00  6.7929473924E-02  6.5361836474E-02  2.6826962108E-03
  6.3859228154E+03  2.4464579612E+00  5.9136183604E+00  6.8121403433E-02  6.5541410243E-02  2.6842090708E-03
  6.3917216557E+03  2.4493782680E+00  5.9119959267E+00  6.8313700167E-02  6.5721302370E-02  2.6857203690E-03
  6.3975204959E+03  2.4522994077E+00  5.9103754088E+00  6.8506364493E-02  6.5901513073E-02  2.6872301467E-03
  6.4033193361E+03  2.4552213799E+00  5.9087568027E+00  6.8699396780E-02  6.6082042567E-02  2.6887384449E-03
  6.4091181764E+03  2.4581441841E+00  5.9071401044E+00  6.8892797396E-02  6.6262891068E-02  2.6902453044E-03
  6.4149170166E+03  2.4610678196E+00  5.9055253099E+00  6.9086566710E-02  6.6444058792E-02  2.6917507655E-03
  6.4207158568E+03  2.4639922861E+00  5.9039124154E+00  6.9280705090E-02  6.6625545955E-02  2.6932548688E-03
  6.4265146971E+03  2.4669175829E+00  5.9023014167E+00  6.9475212904E-02  6.6807352771E-02  2.6947576542E-03
  6.4323135373E+03  2.4698437096E+00  5.9006923100E+00  6.9670090521E-02  6.6989479455E-02  2.6962591618E-03
  6.4381123775E+03  2.4727706657E+00  5.8990850915E+00  6.9865338309E-02  6.7171926221E-02  2.6977594312E-03
  6.4439112178E+03  2.4756984506E+00  5.8974797570E+00  7.0060956636E-02  6.7354693283E-02  2.6992585021E-03
  6.4497100580E+03  2.4786270639E+00  5.8958763029E+00  7.0256945872E-02  6.7537780856E-02  2.7007564137E-03
  6.4555088982E+03  2.4815565049E+00  5.8942747251E+00  7.0453306384E-02  6.7721189152E-02  2.7022532053E-03
  6.4613077385E+03  2.4844877709E+00  5.8926756932E+00  7.0650038541E-02  6.7904919220E-02  2.7037489154E-03
  6.4671065787E+03  2.4874480973E+00  5.8910975597E+00  7.0847142711E-02  6.8088994140E-02  2.7052435777E-03
  6.4729054189E+03  2.4904092930E+00  5.8895212627E+00  7.1044619264E-02  6.8273390616E-02  2.7067372239E-03
  6.4787042591E+03  2.4933713575E+00  5.8879467985E+00  7.1242468568E-02  6.8458108860E-02  2.7082298860E-03
  6.4845030994E+03  2.4963342903E+00  5.8863741632E+00  7.1440690992E-02  6.8643149086E-02  2.7097215955E-03
  6.4903019396E+03  2.4992980908E+00  5.8848033531E+00  7.1639286904E-02  6.8828511505E-02  2.7112123841E-03
  6.4961007798E+03  2.5022627586E+00  5.8832343645E+00  7.1838256673E-02  6.9014196330E-02  2.7127022831E-03
  6.5018996201E+03  2.5052282930E+00  5.8816671935E+00  7.2037600668E-02  6.9200203773E-02  2.7141913238E-03
  6.5076984603E+03  2.5081946937E+00  5.8801018366E+00  7.2237319259E-02  6.9386534045E-02  2.7156795376E-03
  6.5134973005E+03  2.5111619600E+00  5.8785382899E+00  7.2437412812E-02  6.9573187358E-02  2.7171669555E-03
  6.5192961408E+03  2.5141300915E+00  5.8769765499E+00  7.2637881698E-02  6.9760163922E-02  2.7186536085E-03
  6.5250949810E+03  2.5170990876E+00  5.8754166127E+00  7.2838726286E-02  6.9947463948E-02  2.7201395276E-03
  6.5308938212E+03  2.5200689478E+00  5.8738584747E+00  7.3039946944E-02  7.0135087646E-02  2.7216247437E-03
  6.5366926615E+03  2.5230396716E+00  5.8723021322E+00  7.3241544042E-02  7.0323035226E-02  2.7231092875E-03
  6.5424915017E+03  2.5260112585E+00  5.8707475816E+00  7.3443517948E-02  7.0511306898E-02  2.7245931897E-03
  6.5482903419E+03  2.5289837080E+00  5.8691948192E+00  7.3645869032E-02  7.0699902871E-02  2.7260764811E-03
  6.5540891822E+03  2.5319570195E+00  5.8676438415E+00  7.3848597662E-02  7.0888823355E-02  2.7275591916E-03
  6.5598880224E+03  2.5349311926E+00  5.8660946447E+00  7.4051704208E-02  7.1078068557E-02  2.7290413464E-03
  6.5656868626E+03  2.5379062267E+00  5.8645472252E+00  7.4255189039E-02  7.1267638687E-02  2.7305229678E-03
