#[MATERIAL DEFINITION FOR MC-GPU: interaction mean free path and sampling data from PENELOPE 2006]
#[MATERIAL NAME]
# WATER, LIQUID  (278)                                          
#[NOMINAL DENSITY (g/cm^3)]
#   1.00000000
#[NUMBER OF DATA VALUES]
#  25005
#[MEAN FREE PATHS (cm) (ie, average distance between interactions)]
#[Energy (eV)     | Rayleigh        | Compton         | Photoelectric   | TOTAL (+pair prod) (cm) | Rayleigh: max cumul prob F^2]
  5.0000000000E+03  1.9846271201E+00  8.3545665247E+00  2.3888074252E-02  2.3537463981E-02  1.2285397757E-03
  5.0057988402E+03  1.9868545763E+00  8.3486643454E+00  2.3972132501E-02  2.3619336569E-02  1.2297021754E-03
  5.0115976805E+03  1.9890819494E+00  8.3427731619E+00  2.4056388705E-02  2.3701395898E-02  1.2308604886E-03
  5.0173965207E+03  1.9913092393E+00  8.3368929409E+00  2.4140843098E-02  2.3783642158E-02  1.2320147431E-03
  5.0231953609E+03  1.9935364463E+00  8.3310236494E+00  2.4225495919E-02  2.3866075541E-02  1.2331649728E-03
  5.0289942012E+03  1.9957635704E+00  8.3251652544E+00  2.4310347403E-02  2.3948696237E-02  1.2343112139E-03
  5.0347930414E+03  1.9979906116E+00  8.3193177233E+00  2.4395397786E-02  2.4031504436E-02  1.2354535022E-03
  5.0405918816E+03  2.0002175702E+00  8.3134810235E+00  2.4480647305E-02  2.4114500329E-02  1.2365918728E-03
  5.0463907219E+03  2.0024444462E+00  8.3076551223E+00  2.4566096197E-02  2.4197684106E-02  1.2377263605E-03
  5.0521895621E+03  2.0046712397E+00  8.3018399875E+00  2.4651744697E-02  2.4281055958E-02  1.2388569998E-03
  5.0579884023E+03  2.0068979507E+00  8.2960355869E+00  2.4737593042E-02  2.4364616073E-02  1.2399838245E-03
  5.0637872426E+03  2.0091245795E+00  8.2902418883E+00  2.4823641469E-02  2.4448364643E-02  1.2411068680E-03
  5.0695860828E+03  2.0113511261E+00  8.2844588599E+00  2.4909890213E-02  2.4532301857E-02  1.2422261634E-03
  5.0753849230E+03  2.0135775905E+00  8.2786864697E+00  2.4996339512E-02  2.4616427904E-02  1.2433417435E-03
  5.0811837632E+03  2.0158039730E+00  8.2729246861E+00  2.5082989601E-02  2.4700742975E-02  1.2444536444E-03
  5.0869826035E+03  2.0180487857E+00  8.2671901559E+00  2.5169840717E-02  2.4785250200E-02  1.2455619081E-03
  5.0927814437E+03  2.0204026920E+00  8.2615642893E+00  2.5256893097E-02  2.4869964287E-02  1.2466665765E-03
  5.0985802839E+03  2.0227566606E+00  8.2559486469E+00  2.5344146976E-02  2.4954868178E-02  1.2477676908E-03
  5.1043791242E+03  2.0251106913E+00  8.2503431984E+00  2.5431602592E-02  2.5039962063E-02  1.2488652917E-03
  5.1101779644E+03  2.0274647842E+00  8.2447479138E+00  2.5519260181E-02  2.5125246132E-02  1.2499594194E-03
  5.1159768046E+03  2.0298189391E+00  8.2391627630E+00  2.5607119978E-02  2.5210720575E-02  1.2510501135E-03
  5.1217756449E+03  2.0321731559E+00  8.2335877164E+00  2.5695182222E-02  2.5296385581E-02  1.2521374131E-03
  5.1275744851E+03  2.0345274347E+00  8.2280227442E+00  2.5783447147E-02  2.5382241341E-02  1.2532213565E-03
  5.1333733253E+03  2.0368817753E+00  8.2224678169E+00  2.5871914991E-02  2.5468288044E-02  1.2543019818E-03
  5.1391721656E+03  2.0392361777E+00  8.2169229050E+00  2.5960585990E-02  2.5554525880E-02  1.2553793285E-03
  5.1449710058E+03  2.0415906418E+00  8.2113879792E+00  2.6049460381E-02  2.5640955038E-02  1.2564534428E-03
  5.1507698460E+03  2.0439451675E+00  8.2058630102E+00  2.6138538400E-02  2.5727575707E-02  1.2575243727E-03
  5.1565686863E+03  2.0462997548E+00  8.2003479690E+00  2.6227820283E-02  2.5814388076E-02  1.2585921650E-03
  5.1623675265E+03  2.0486544035E+00  8.1948428267E+00  2.6317306268E-02  2.5901392335E-02  1.2596568661E-03
  5.1681663667E+03  2.0510091137E+00  8.1893475543E+00  2.6406996590E-02  2.5988588672E-02  1.2607185218E-03
  5.1739652070E+03  2.0533666601E+00  8.1838649128E+00  2.6496891487E-02  2.6075977751E-02  1.2617771772E-03
  5.1797640472E+03  2.0558312327E+00  8.1784994161E+00  2.6586991194E-02  2.6163577714E-02  1.2628328766E-03
  5.1855628874E+03  2.0582960009E+00  8.1731434345E+00  2.6677295948E-02  2.6251370514E-02  1.2638856639E-03
  5.1913617277E+03  2.0607609645E+00  8.1677969407E+00  2.6767805987E-02  2.6339356339E-02  1.2649355824E-03
  5.1971605679E+03  2.0632261232E+00  8.1624599073E+00  2.6858521546E-02  2.6427535379E-02  1.2659826849E-03
  5.2029594081E+03  2.0656914769E+00  8.1571323070E+00  2.6949442862E-02  2.6515907824E-02  1.2670270321E-03
  5.2087582484E+03  2.0681570253E+00  8.1518141126E+00  2.7040570171E-02  2.6604473862E-02  1.2680686649E-03
  5.2145570886E+03  2.0706227683E+00  8.1465052971E+00  2.7131903711E-02  2.6693233682E-02  1.2691076228E-03
  5.2203559288E+03  2.0730887057E+00  8.1412058336E+00  2.7223443717E-02  2.6782187473E-02  1.2701439451E-03
  5.2261547690E+03  2.0755548372E+00  8.1359156952E+00  2.7315190427E-02  2.6871335424E-02  1.2711776705E-03
  5.2319536093E+03  2.0780211627E+00  8.1306348552E+00  2.7407144077E-02  2.6960677724E-02  1.2722088372E-03
  5.2377524495E+03  2.0804876819E+00  8.1253632869E+00  2.7499304903E-02  2.7050214560E-02  1.2732374830E-03
  5.2435512897E+03  2.0829543947E+00  8.1201009639E+00  2.7591673143E-02  2.7139946121E-02  1.2742636451E-03
  5.2493501300E+03  2.0854213009E+00  8.1148478597E+00  2.7684249032E-02  2.7229872596E-02  1.2752873603E-03
  5.2551489702E+03  2.0878884002E+00  8.1096039481E+00  2.7777032809E-02  2.7319994172E-02  1.2763086642E-03
  5.2609478104E+03  2.0903556925E+00  8.1043692027E+00  2.7870024708E-02  2.7410311037E-02  1.2773275718E-03
  5.2667466507E+03  2.0928824057E+00  8.0992117323E+00  2.7963224967E-02  2.7500834391E-02  1.2783440810E-03
  5.2725454909E+03  2.0954420242E+00  8.0941006886E+00  2.8056633823E-02  2.7591559615E-02  1.2793581893E-03
  5.2783443311E+03  2.0980019545E+00  8.0889984830E+00  2.8150251513E-02  2.7682480861E-02  1.2803698945E-03
  5.2841431714E+03  2.1005621961E+00  8.0839050907E+00  2.8244078272E-02  2.7773598319E-02  1.2813791942E-03
  5.2899420116E+03  2.1031227488E+00  8.0788204866E+00  2.8338114337E-02  2.7864912177E-02  1.2823860864E-03
  5.2957408518E+03  2.1056836124E+00  8.0737446462E+00  2.8432359946E-02  2.7956422622E-02  1.2833905690E-03
  5.3015396921E+03  2.1082447864E+00  8.0686775446E+00  2.8526815336E-02  2.8048129843E-02  1.2843926403E-03
  5.3073385323E+03  2.1108062706E+00  8.0636191573E+00  2.8621480742E-02  2.8140034028E-02  1.2853922984E-03
  5.3131373725E+03  2.1133680648E+00  8.0585694598E+00  2.8716356401E-02  2.8232135365E-02  1.2863895400E-03
  5.3189362128E+03  2.1159301685E+00  8.0535284277E+00  2.8811442551E-02  2.8324434041E-02  1.2873843384E-03
  5.3247350530E+03  2.1184925815E+00  8.0484960368E+00  2.8906739427E-02  2.8416930243E-02  1.2883766493E-03
  5.3305338932E+03  2.1210553035E+00  8.0434722628E+00  2.9002247268E-02  2.8509624159E-02  1.2893664288E-03
  5.3363327335E+03  2.1236183342E+00  8.0384570816E+00  2.9097966308E-02  2.8602515977E-02  1.2903536338E-03
  5.3421315737E+03  2.1261816733E+00  8.0334504692E+00  2.9193896787E-02  2.8695605882E-02  1.2913382219E-03
  5.3479304139E+03  2.1287453205E+00  8.0284524018E+00  2.9290038939E-02  2.8788894063E-02  1.2923201514E-03
  5.3537292541E+03  2.1313092755E+00  8.0234628554E+00  2.9386393002E-02  2.8882380706E-02  1.2932993818E-03
  5.3595280944E+03  2.1339474852E+00  8.0185830120E+00  2.9482959212E-02  2.8976080954E-02  1.2942758729E-03
  5.3653269346E+03  2.1365861514E+00  8.0137114755E+00  2.9579737807E-02  2.9069980193E-02  1.2952495855E-03
  5.3711257748E+03  2.1392252246E+00  8.0088481561E+00  2.9676729024E-02  2.9164078601E-02  1.2962204790E-03
  5.3769246151E+03  2.1418647047E+00  8.0039930312E+00  2.9773933098E-02  2.9258376365E-02  1.2971884843E-03
  5.3827234553E+03  2.1445045911E+00  7.9991460780E+00  2.9871350267E-02  2.9352873673E-02  1.2981535157E-03
  5.3885222955E+03  2.1471448836E+00  7.9943072741E+00  2.9968980768E-02  2.9447570709E-02  1.2991154893E-03
  5.3943211358E+03  2.1497855817E+00  7.9894765970E+00  3.0066824838E-02  2.9542467663E-02  1.3000743227E-03
  5.4001199760E+03  2.1524266850E+00  7.9846540244E+00  3.0164882712E-02  2.9637564720E-02  1.3010299355E-03
  5.4059188162E+03  2.1550681933E+00  7.9798395339E+00  3.0263154629E-02  2.9732862066E-02  1.3019822490E-03
  5.4117176565E+03  2.1577101061E+00  7.9750331034E+00  3.0361640825E-02  2.9828359889E-02  1.3029311866E-03
  5.4175164967E+03  2.1603524230E+00  7.9702347108E+00  3.0460341538E-02  2.9924058374E-02  1.3038766733E-03
  5.4233153369E+03  2.1629951437E+00  7.9654443340E+00  3.0559257003E-02  3.0019957707E-02  1.3048186363E-03
  5.4291141772E+03  2.1656382678E+00  7.9606619511E+00  3.0658387457E-02  3.0116058075E-02  1.3057569842E-03
  5.4349130174E+03  2.1682817950E+00  7.9558875402E+00  3.0757733139E-02  3.0212359663E-02  1.3066915968E-03
  5.4407118576E+03  2.1709257248E+00  7.9511210797E+00  3.0857294283E-02  3.0308862657E-02  1.3076223613E-03
  5.4465106979E+03  2.1735747703E+00  7.9463707217E+00  3.0957071129E-02  3.0405568284E-02  1.3085491679E-03
  5.4523095381E+03  2.1762756006E+00  7.9417171893E+00  3.1057063911E-02  3.0502487104E-02  1.3094719102E-03
  5.4581083783E+03  2.1789769105E+00  7.9370713245E+00  3.1157272868E-02  3.0599608006E-02  1.3103904851E-03
  5.4639072186E+03  2.1816786996E+00  7.9324331063E+00  3.1257698236E-02  3.0696931176E-02  1.3113047927E-03
  5.4697060588E+03  2.1843809676E+00  7.9278025143E+00  3.1358340252E-02  3.0794456800E-02  1.3122147365E-03
  5.4755048990E+03  2.1870837140E+00  7.9231795277E+00  3.1459199154E-02  3.0892185064E-02  1.3131202234E-03
  5.4813037393E+03  2.1897869384E+00  7.9185641260E+00  3.1560848279E-02  3.0990668735E-02  1.3140211603E-03
  5.4871025795E+03  2.1924906403E+00  7.9139562889E+00  3.1662961194E-02  3.1089592907E-02  1.3149174416E-03
  5.4929014197E+03  2.1951948194E+00  7.9093559958E+00  3.1765296106E-02  3.1188724382E-02  1.3158090640E-03
  5.4987002599E+03  2.1978994752E+00  7.9047632266E+00  3.1867853264E-02  3.1288063354E-02  1.3166960495E-03
  5.5044991002E+03  2.2006046073E+00  7.9001779610E+00  3.1970632915E-02  3.1387610016E-02  1.3175784202E-03
  5.5102979404E+03  2.2033102152E+00  7.8956001788E+00  3.2073635306E-02  3.1487364563E-02  1.3184561981E-03
  5.5160967806E+03  2.2060162987E+00  7.8910298601E+00  3.2176860685E-02  3.1587327187E-02  1.3193294054E-03
  5.5218956209E+03  2.2087228572E+00  7.8864669847E+00  3.2280309300E-02  3.1687498083E-02  1.3201980643E-03
  5.5276944611E+03  2.2114298903E+00  7.8819115328E+00  3.2383981398E-02  3.1787877442E-02  1.3210621970E-03
  5.5334933013E+03  2.2141373976E+00  7.8773634845E+00  3.2487877227E-02  3.1888465458E-02  1.3219218258E-03
  5.5392921416E+03  2.2168453788E+00  7.8728228201E+00  3.2591997034E-02  3.1989262325E-02  1.3227770003E-03
  5.5450909818E+03  2.2195879192E+00  7.8683728202E+00  3.2696341067E-02  3.2090276745E-02  1.3236278716E-03
  5.5508898220E+03  2.2223350047E+00  7.8639397991E+00  3.2800909574E-02  3.2191501491E-02  1.3244745722E-03
  5.5566886623E+03  2.2250826165E+00  7.8595139004E+00  3.2905702802E-02  3.2292935759E-02  1.3253172286E-03
  5.5624875025E+03  2.2278307542E+00  7.8550951050E+00  3.3010720999E-02  3.2394579740E-02  1.3261559641E-03
  5.5682863427E+03  2.2305794173E+00  7.8506833943E+00  3.3115964412E-02  3.2496433628E-02  1.3269909136E-03
  5.5740851830E+03  2.2333286054E+00  7.8462787494E+00  3.3221433290E-02  3.2598497615E-02  1.3278222603E-03
  5.5798840232E+03  2.2360783180E+00  7.8418811518E+00  3.3327127880E-02  3.2700771893E-02  1.3286501939E-03
  5.5856828634E+03  2.2388285547E+00  7.8374905829E+00  3.3433048430E-02  3.2803256655E-02  1.3294748999E-03
  5.5914817037E+03  2.2415793151E+00  7.8331070241E+00  3.3539195187E-02  3.2905952094E-02  1.3302965616E-03
  5.5972805439E+03  2.2443305987E+00  7.8287304571E+00  3.3645568399E-02  3.3008858401E-02  1.3311153951E-03
  5.6030793841E+03  2.2470824050E+00  7.8243608633E+00  3.3752168314E-02  3.3111975768E-02  1.3319315594E-03
  5.6088782244E+03  2.2498347336E+00  7.8199982246E+00  3.3858995180E-02  3.3215304387E-02  1.3327451852E-03
  5.6146770646E+03  2.2525875842E+00  7.8156425227E+00  3.3966049244E-02  3.3318844450E-02  1.3335564007E-03
  5.6204759048E+03  2.2553409561E+00  7.8112937394E+00  3.4073330755E-02  3.3422596149E-02  1.3343653319E-03
  5.6262747451E+03  2.2580948491E+00  7.8069518565E+00  3.4180839960E-02  3.3526559674E-02  1.3351721030E-03
  5.6320735853E+03  2.2608492626E+00  7.8026168561E+00  3.4288577107E-02  3.3630735217E-02  1.3359768363E-03
  5.6378724255E+03  2.2636127221E+00  7.7983267584E+00  3.4396542444E-02  3.3735125575E-02  1.3367796525E-03
  5.6436712657E+03  2.2663882195E+00  7.7940946700E+00  3.4504736218E-02  3.3839731891E-02  1.3375806706E-03
  5.6494701060E+03  2.2691642644E+00  7.7898692210E+00  3.4613158678E-02  3.3944550858E-02  1.3383800025E-03
  5.6552689462E+03  2.2719408564E+00  7.7856503941E+00  3.4721810071E-02  3.4049582668E-02  1.3391777029E-03
  5.6610677864E+03  2.2747179951E+00  7.7814381723E+00  3.4830690646E-02  3.4154827513E-02  1.3399737961E-03
  5.6668666267E+03  2.2774956799E+00  7.7772325384E+00  3.4939800650E-02  3.4260285582E-02  1.3407683054E-03
  5.6726654669E+03  2.2802739105E+00  7.7730334755E+00  3.5049140331E-02  3.4365957067E-02  1.3415612543E-03
  5.6784643071E+03  2.2830526864E+00  7.7688409665E+00  3.5158709937E-02  3.4471842159E-02  1.3423526658E-03
  5.6842631474E+03  2.2858320071E+00  7.7646549945E+00  3.5268509717E-02  3.4577941047E-02  1.3431425628E-03
  5.6900619876E+03  2.2886118722E+00  7.7604755427E+00  3.5378539917E-02  3.4684253921E-02  1.3439309679E-03
  5.6958608278E+03  2.2913922812E+00  7.7563025943E+00  3.5488800787E-02  3.4790780973E-02  1.3447179035E-03
  5.7016596681E+03  2.2941732338E+00  7.7521361326E+00  3.5599292573E-02  3.4897522392E-02  1.3455033797E-03
  5.7074585083E+03  2.2969547294E+00  7.7479761409E+00  3.5710015525E-02  3.5004478368E-02  1.3462873276E-03
  5.7132573485E+03  2.2997367676E+00  7.7438226026E+00  3.5820969890E-02  3.5111649090E-02  1.3470697118E-03
  5.7190561888E+03  2.3025193479E+00  7.7396755012E+00  3.5932155916E-02  3.5219034749E-02  1.3478505077E-03
  5.7248550290E+03  2.3053024700E+00  7.7355348202E+00  3.6043573851E-02  3.5326635533E-02  1.3486296909E-03
  5.7306538692E+03  2.3080861333E+00  7.7314005431E+00  3.6155223943E-02  3.5434451632E-02  1.3494072375E-03
  5.7364527095E+03  2.3108715762E+00  7.7273302987E+00  3.6267106441E-02  3.5542484748E-02  1.3501831237E-03
  5.7422515497E+03  2.3136581629E+00  7.7232942608E+00  3.6379221592E-02  3.5650734313E-02  1.3509573262E-03
  5.7480503899E+03  2.3164452921E+00  7.7192644015E+00  3.6491569644E-02  3.5759199787E-02  1.3517298222E-03
  5.7538492302E+03  2.3192329635E+00  7.7152407052E+00  3.6604150847E-02  3.5867881358E-02  1.3525005889E-03
  5.7596480704E+03  2.3220211764E+00  7.7112231562E+00  3.6716965447E-02  3.5976779215E-02  1.3532696110E-03
  5.7654469106E+03  2.3248099306E+00  7.7072117389E+00  3.6830013693E-02  3.6085893546E-02  1.3540368884E-03
  5.7712457508E+03  2.3275992255E+00  7.7032064379E+00  3.6943295833E-02  3.6195224541E-02  1.3548024234E-03
  5.7770445911E+03  2.3303890607E+00  7.6992072377E+00  3.7056812115E-02  3.6304772387E-02  1.3555662182E-03
  5.7828434313E+03  2.3331794358E+00  7.6952141228E+00  3.7170562788E-02  3.6414537273E-02  1.3563282748E-03
  5.7886422715E+03  2.3359703504E+00  7.6912270780E+00  3.7284548100E-02  3.6524519387E-02  1.3570885956E-03
  5.7944411118E+03  2.3387618039E+00  7.6872460879E+00  3.7398768298E-02  3.6634718917E-02  1.3578471828E-03
  5.8002399520E+03  2.3415537960E+00  7.6832711373E+00  3.7513223632E-02  3.6745136050E-02  1.3586040386E-03
  5.8060387922E+03  2.3443463263E+00  7.6793022110E+00  3.7627914349E-02  3.6855770975E-02  1.3593591654E-03
  5.8118376325E+03  2.3471393942E+00  7.6753392939E+00  3.7742840698E-02  3.6966623879E-02  1.3601125708E-03
  5.8176364727E+03  2.3499329995E+00  7.6713823708E+00  3.7858002926E-02  3.7077694949E-02  1.3608642799E-03
  5.8234353129E+03  2.3527271415E+00  7.6674314269E+00  3.7973401283E-02  3.7188984372E-02  1.3616143211E-03
  5.8292341532E+03  2.3555218200E+00  7.6634864470E+00  3.8089036017E-02  3.7300492337E-02  1.3623627226E-03
  5.8350329934E+03  2.3583066304E+00  7.6595992851E+00  3.8204907375E-02  3.7412217648E-02  1.3631095120E-03
  5.8408318336E+03  2.3610858955E+00  7.6557481474E+00  3.8321015606E-02  3.7524161058E-02  1.3638547168E-03
  5.8466306739E+03  2.3638656731E+00  7.6519027646E+00  3.8437360959E-02  3.7636323558E-02  1.3645983642E-03
  5.8524295141E+03  2.3666459629E+00  7.6480631225E+00  3.8553943682E-02  3.7748705333E-02  1.3653404810E-03
  5.8582283543E+03  2.3694267644E+00  7.6442292068E+00  3.8670764023E-02  3.7861306570E-02  1.3660810937E-03
  5.8640271946E+03  2.3722080773E+00  7.6404010034E+00  3.8787822230E-02  3.7974127455E-02  1.3668202339E-03
  5.8698260348E+03  2.3749899010E+00  7.6365784980E+00  3.8905118553E-02  3.8087168174E-02  1.3675579513E-03
  5.8756248750E+03  2.3777722353E+00  7.6327616766E+00  3.9022653239E-02  3.8200428913E-02  1.3682942998E-03
  5.8814237153E+03  2.3805550797E+00  7.6289505252E+00  3.9140426536E-02  3.8313909858E-02  1.3690293324E-03
  5.8872225555E+03  2.3833384338E+00  7.6251450297E+00  3.9258438695E-02  3.8427611195E-02  1.3697631017E-03
  5.8930213957E+03  2.3861222972E+00  7.6213451762E+00  3.9376689961E-02  3.8541533109E-02  1.3704956596E-03
  5.8988202360E+03  2.3889066695E+00  7.6175509508E+00  3.9495180585E-02  3.8655675785E-02  1.3712270578E-03
  5.9046190762E+03  2.3916915502E+00  7.6137623396E+00  3.9613910815E-02  3.8770039409E-02  1.3719573474E-03
  5.9104179164E+03  2.3944769389E+00  7.6099793288E+00  3.9732880899E-02  3.8884624166E-02  1.3726865789E-03
  5.9162167566E+03  2.3972628354E+00  7.6062019047E+00  3.9852091085E-02  3.8999430240E-02  1.3734148096E-03
  5.9220155969E+03  2.4000492391E+00  7.6024300536E+00  3.9971541623E-02  3.9114457817E-02  1.3741421143E-03
  5.9278144371E+03  2.4028361496E+00  7.5986637617E+00  4.0091232760E-02  3.9229707081E-02  1.3748685708E-03
  5.9336132773E+03  2.4056132661E+00  7.5949263704E+00  4.0211164746E-02  3.9345176088E-02  1.3755942561E-03
  5.9394121176E+03  2.4083664409E+00  7.5912497755E+00  4.0331337828E-02  3.9460862070E-02  1.3763192469E-03
  5.9452109578E+03  2.4111200754E+00  7.5875785457E+00  4.0451752256E-02  3.9576770238E-02  1.3770436193E-03
  5.9510097980E+03  2.4138741691E+00  7.5839126678E+00  4.0572408278E-02  3.9692900776E-02  1.3777674491E-03
  5.9568086383E+03  2.4166287218E+00  7.5802521289E+00  4.0693306142E-02  3.9809253868E-02  1.3784908120E-03
  5.9626074785E+03  2.4193837329E+00  7.5765969159E+00  4.0814446097E-02  3.9925829697E-02  1.3792137836E-03
  5.9684063187E+03  2.4221392022E+00  7.5729470161E+00  4.0935828393E-02  4.0042628446E-02  1.3799364566E-03
  5.9742051590E+03  2.4248951293E+00  7.5693024164E+00  4.1057453276E-02  4.0159650299E-02  1.3806589118E-03
  5.9800039992E+03  2.4276515138E+00  7.5656631041E+00  4.1179320997E-02  4.0276895440E-02  1.3813812197E-03
  5.9858028394E+03  2.4304083554E+00  7.5620290664E+00  4.1301431804E-02  4.0394364050E-02  1.3821034511E-03
  5.9916016797E+03  2.4331656536E+00  7.5584002906E+00  4.1423785944E-02  4.0512056312E-02  1.3828256765E-03
  5.9974005199E+03  2.4359234082E+00  7.5547767639E+00  4.1546383668E-02  4.0629972411E-02  1.3835479666E-03
  6.0031993601E+03  2.4386816187E+00  7.5511584736E+00  4.1669504652E-02  4.0748379737E-02  1.3842703920E-03
  6.0089982004E+03  2.4414402848E+00  7.5475454073E+00  4.1793098698E-02  4.0867230160E-02  1.3849930235E-03
  6.0147970406E+03  2.4441994061E+00  7.5439375522E+00  4.1916939586E-02  4.0986307272E-02  1.3857159320E-03
  6.0205958808E+03  2.4469589823E+00  7.5403348959E+00  4.2041027569E-02  4.1105611259E-02  1.3864391811E-03
  6.0263947211E+03  2.4497190130E+00  7.5367374259E+00  4.2165362903E-02  4.1225142308E-02  1.3871628229E-03
  6.0321935613E+03  2.4524794978E+00  7.5331451297E+00  4.2289945842E-02  4.1344900605E-02  1.3878869087E-03
  6.0379924015E+03  2.4552118200E+00  7.5296079566E+00  4.2414776640E-02  4.1464879689E-02  1.3886114901E-03
  6.0437912418E+03  2.4579299859E+00  7.5261012410E+00  4.2539855551E-02  4.1585082946E-02  1.3893366187E-03
  6.0495900820E+03  2.4606485500E+00  7.5225995192E+00  4.2665182831E-02  4.1705513931E-02  1.3900623465E-03
  6.0553889222E+03  2.4633675120E+00  7.5191027793E+00  4.2790758732E-02  4.1826172830E-02  1.3907887258E-03
  6.0611877624E+03  2.4660868716E+00  7.5156110094E+00  4.2916583510E-02  4.1947059827E-02  1.3915158091E-03
  6.0669866027E+03  2.4688066284E+00  7.5121241978E+00  4.3042657420E-02  4.2068175107E-02  1.3922436485E-03
  6.0727854429E+03  2.4715267821E+00  7.5086423327E+00  4.3168980715E-02  4.2189518855E-02  1.3929722846E-03
  6.0785842831E+03  2.4742473324E+00  7.5051654023E+00  4.3295553649E-02  4.2311091257E-02  1.3937017500E-03
  6.0843831234E+03  2.4769682790E+00  7.5016933949E+00  4.3422376479E-02  4.2432892495E-02  1.3944320771E-03
  6.0901819636E+03  2.4796896215E+00  7.4982262990E+00  4.3549449457E-02  4.2554922755E-02  1.3951632989E-03
  6.0959808038E+03  2.4824113596E+00  7.4947641029E+00  4.3676772839E-02  4.2677182221E-02  1.3958954483E-03
  6.1017796441E+03  2.4851334931E+00  7.4913067949E+00  4.3804346879E-02  4.2799671077E-02  1.3966285587E-03
  6.1075784843E+03  2.4878560216E+00  7.4878543637E+00  4.3932171832E-02  4.2922389505E-02  1.3973626634E-03
  6.1133773245E+03  2.4905789447E+00  7.4844067976E+00  4.4060247951E-02  4.3045337691E-02  1.3980977964E-03
  6.1191761648E+03  2.4933022622E+00  7.4809640852E+00  4.4188575493E-02  4.3168515818E-02  1.3988339886E-03
  6.1249750050E+03  2.4960259738E+00  7.4775262151E+00  4.4317154710E-02  4.3291924069E-02  1.3995712573E-03
  6.1307738452E+03  2.4987500790E+00  7.4740931759E+00  4.4445985859E-02  4.3415562627E-02  1.4003096159E-03
  6.1365726855E+03  2.5014745777E+00  7.4706649563E+00  4.4575069193E-02  4.3539431675E-02  1.4010490781E-03
  6.1423715257E+03  2.5041732198E+00  7.4672938432E+00  4.4704404968E-02  4.3663525204E-02  1.4017896578E-03
  6.1481703659E+03  2.5068622479E+00  7.4639472729E+00  4.4833993437E-02  4.3787847183E-02  1.4025313688E-03
  6.1539692062E+03  2.5095516244E+00  7.4606053553E+00  4.4963834856E-02  4.3912400136E-02  1.4032742252E-03
  6.1597680464E+03  2.5122413490E+00  7.4572680795E+00  4.5093929479E-02  4.4037184247E-02  1.4040182410E-03
  6.1655668866E+03  2.5149314215E+00  7.4539354347E+00  4.5224277561E-02  4.4162199697E-02  1.4047634309E-03
  6.1713657269E+03  2.5176218415E+00  7.4506074100E+00  4.5354879356E-02  4.4287446668E-02  1.4055098077E-03
  6.1771645671E+03  2.5203126087E+00  7.4472839949E+00  4.5485735120E-02  4.4412925342E-02  1.4062573664E-03
  6.1829634073E+03  2.5230037230E+00  7.4439651784E+00  4.5616845108E-02  4.4538635900E-02  1.4070060986E-03
  6.1887622476E+03  2.5256951840E+00  7.4406509501E+00  4.5748209573E-02  4.4664578523E-02  1.4077559960E-03
  6.1945610878E+03  2.5283869914E+00  7.4373412993E+00  4.5879828771E-02  4.4790753394E-02  1.4085070500E-03
  6.2003599280E+03  2.5310791449E+00  7.4340362153E+00  4.6011702956E-02  4.4917160692E-02  1.4092592520E-03
  6.2061587682E+03  2.5337716444E+00  7.4307356876E+00  4.6143832384E-02  4.5043800599E-02  1.4100125933E-03
  6.2119576085E+03  2.5364644894E+00  7.4274397057E+00  4.6276217309E-02  4.5170673295E-02  1.4107670652E-03
  6.2177564487E+03  2.5391576797E+00  7.4241482590E+00  4.6408857986E-02  4.5297778961E-02  1.4115226587E-03
  6.2235552889E+03  2.5418512150E+00  7.4208613372E+00  4.6541754669E-02  4.5425117778E-02  1.4122793649E-03
  6.2293541292E+03  2.5445450951E+00  7.4175789298E+00  4.6674907615E-02  4.5552689925E-02  1.4130371748E-03
  6.2351529694E+03  2.5472393197E+00  7.4143010263E+00  4.6808317077E-02  4.5680495583E-02  1.4137960791E-03
  6.2409518096E+03  2.5499338885E+00  7.4110276165E+00  4.6941983311E-02  4.5808534931E-02  1.4145560688E-03
  6.2467506499E+03  2.5526154917E+00  7.4077916773E+00  4.7075906572E-02  4.5936805108E-02  1.4153171344E-03
  6.2525494901E+03  2.5552828556E+00  7.4045962028E+00  4.7210087114E-02  4.6065305974E-02  1.4160792666E-03
  6.2583483303E+03  2.5579505301E+00  7.4014050672E+00  4.7344525192E-02  4.6194041026E-02  1.4168424559E-03
  6.2641471706E+03  2.5606185152E+00  7.3982182603E+00  4.7479221062E-02  4.6323010442E-02  1.4176066921E-03
  6.2699460108E+03  2.5632868105E+00  7.3950357724E+00  4.7614174979E-02  4.6452214401E-02  1.4183719578E-03
  6.2757448510E+03  2.5659554158E+00  7.3918575936E+00  4.7749387196E-02  4.6581653082E-02  1.4191382406E-03
  6.2815436913E+03  2.5686243308E+00  7.3886837141E+00  4.7884857971E-02  4.6711326663E-02  1.4199055304E-03
  6.2873425315E+03  2.5712935553E+00  7.3855141242E+00  4.8020587556E-02  4.6841235323E-02  1.4206738168E-03
  6.2931413717E+03  2.5739630890E+00  7.3823488140E+00  4.8156576209E-02  4.6971379240E-02  1.4214430898E-03
  6.2989402120E+03  2.5766329317E+00  7.3791877739E+00  4.8292824183E-02  4.7101758593E-02  1.4222133388E-03
  6.3047390522E+03  2.5793030831E+00  7.3760309942E+00  4.8429331734E-02  4.7232373559E-02  1.4229845536E-03
  6.3105378924E+03  2.5819735430E+00  7.3728784653E+00  4.8566099116E-02  4.7363224315E-02  1.4237567234E-03
  6.3163367327E+03  2.5846443112E+00  7.3697301774E+00  4.8703126586E-02  4.7494311041E-02  1.4245298378E-03
  6.3221355729E+03  2.5873153873E+00  7.3665861211E+00  4.8840414398E-02  4.7625633912E-02  1.4253038860E-03
  6.3279344131E+03  2.5899867711E+00  7.3634462867E+00  4.8977962807E-02  4.7757193107E-02  1.4260788573E-03
  6.3337332533E+03  2.5926584625E+00  7.3603106648E+00  4.9115772069E-02  4.7888988802E-02  1.4268547408E-03
  6.3395320936E+03  2.5953304611E+00  7.3571792458E+00  4.9253842438E-02  4.8021021174E-02  1.4276315256E-03
  6.3453309338E+03  2.5980027667E+00  7.3540520202E+00  4.9392174170E-02  4.8153290400E-02  1.4284092006E-03
  6.3511297740E+03  2.6006753791E+00  7.3509289787E+00  4.9530767520E-02  4.8285796657E-02  1.4291877548E-03
  6.3569286143E+03  2.6033304520E+00  7.3478706150E+00  4.9669622744E-02  4.8418536575E-02  1.4299671771E-03
  6.3627274545E+03  2.6059841705E+00  7.3448218644E+00  4.9808740096E-02  4.8551513528E-02  1.4307474561E-03
  6.3685262947E+03  2.6086381729E+00  7.3417771543E+00  4.9948119831E-02  4.8684728019E-02  1.4315285806E-03
  6.3743251350E+03  2.6112924591E+00  7.3387364758E+00  5.0087762206E-02  4.8818180221E-02  1.4323105392E-03
  6.3801239752E+03  2.6139470287E+00  7.3356998197E+00  5.0227667476E-02  4.8951870312E-02  1.4330933205E-03
  6.3859228154E+03  2.6166018816E+00  7.3326671772E+00  5.0367835895E-02  4.9085798466E-02  1.4338769128E-03
  6.3917216557E+03  2.6192570176E+00  7.3296385394E+00  5.0508267719E-02  4.9219964860E-02  1.4346613046E-03
  6.3975204959E+03  2.6219124363E+00  7.3266138972E+00  5.0648963204E-02  4.9354369667E-02  1.4354464842E-03
  6.4033193361E+03  2.6245681377E+00  7.3235932418E+00  5.0789922604E-02  4.9489013064E-02  1.4362324399E-03
  6.4091181764E+03  2.6272241214E+00  7.3205765644E+00  5.0931146175E-02  4.9623895225E-02  1.4370191599E-03
  6.4149170166E+03  2.6298803873E+00  7.3175638560E+00  5.1072634173E-02  4.9759016325E-02  1.4378066322E-03
  6.4207158568E+03  2.6325369350E+00  7.3145551080E+00  5.1214386853E-02  4.9894376538E-02  1.4385948450E-03
  6.4265146971E+03  2.6351937645E+00  7.3115503116E+00  5.1356404470E-02  5.0029976038E-02  1.4393837863E-03
  6.4323135373E+03  2.6378508754E+00  7.3085494579E+00  5.1498687280E-02  5.0165815000E-02  1.4401734439E-03
  6.4381123775E+03  2.6405082675E+00  7.3055525383E+00  5.1641235539E-02  5.0301893598E-02  1.4409638057E-03
  6.4439112178E+03  2.6431659407E+00  7.3025595440E+00  5.1784049501E-02  5.0438212005E-02  1.4417548596E-03
  6.4497100580E+03  2.6458238946E+00  7.2995704665E+00  5.1927129422E-02  5.0574770396E-02  1.4425465933E-03
  6.4555088982E+03  2.6484821291E+00  7.2965852970E+00  5.2070475558E-02  5.0711568943E-02  1.4433389945E-03
  6.4613077385E+03  2.6511402665E+00  7.2936061870E+00  5.2214088164E-02  5.0848607786E-02  1.4441320522E-03
  6.4671065787E+03  2.6537880025E+00  7.2906919954E+00  5.2357967495E-02  5.0985886174E-02  1.4449257558E-03
  6.4729054189E+03  2.6564360063E+00  7.2877815786E+00  5.2502113809E-02  5.1123405239E-02  1.4457200938E-03
  6.4787042591E+03  2.6590842775E+00  7.2848749282E+00  5.2646527359E-02  5.1261165154E-02  1.4465150547E-03
  6.4845030994E+03  2.6617328160E+00  7.2819720360E+00  5.2791208401E-02  5.1399166091E-02  1.4473106271E-03
  6.4903019396E+03  2.6643816215E+00  7.2790728937E+00  5.2936157192E-02  5.1537408223E-02  1.4481067992E-03
  6.4961007798E+03  2.6670306939E+00  7.2761774933E+00  5.3081373986E-02  5.1675891722E-02  1.4489035594E-03
  6.5018996201E+03  2.6696800330E+00  7.2732858265E+00  5.3226859039E-02  5.1814616760E-02  1.4497008961E-03
  6.5076984603E+03  2.6723296385E+00  7.2703978852E+00  5.3372612607E-02  5.1953583509E-02  1.4504987974E-03
  6.5134973005E+03  2.6749795103E+00  7.2675136613E+00  5.3518634946E-02  5.2092792141E-02  1.4512972517E-03
  6.5192961408E+03  2.6776296480E+00  7.2646331467E+00  5.3664926311E-02  5.2232242828E-02  1.4520962469E-03
  6.5250949810E+03  2.6802800516E+00  7.2617563333E+00  5.3811486958E-02  5.2371935740E-02  1.4528957713E-03
  6.5308938212E+03  2.6829307207E+00  7.2588832131E+00  5.3958317143E-02  5.2511871050E-02  1.4536958129E-03
  6.5366926615E+03  2.6855816552E+00  7.2560137781E+00  5.4105417121E-02  5.2652048928E-02  1.4544963597E-03
  6.5424915017E+03  2.6882328550E+00  7.2531480202E+00  5.4252787148E-02  5.2792469546E-02  1.4552973998E-03
  6.5482903419E+03  2.6908843196E+00  7.2502859316E+00  5.4400427480E-02  5.2933133073E-02  1.4560989210E-03
  6.5540891822E+03  2.6935360491E+00  7.2474275043E+00  5.4548338372E-02  5.3074039681E-02  1.4569009112E-03
  6.5598880224E+03  2.6961880431E+00  7.2445727303E+00  5.4696520081E-02  5.3215189539E-02  1.4577033583E-03
  6.5656868626E+03  2.6988403014E+00  7.2417216019E+00  5.4844972862E-02  5.3356582818E-02  1.4585062501E-03
